1543255260.00
64.000000
-0.00
-0.00
-0.00
-0.00
-0.00
-0.00
-0.00
-0.00
-0.00
-0.00
0.00
0.01
0.01
-0.00
-0.03
-0.05
-0.05
0.00
0.13
0.36
0.66
1.01
1.37
1.72
2.06
2.40
2.79
3.24
3.80
4.42
5.06
5.66
6.20
6.68
7.15
7.68
8.31
9.14
10.09
11.04
11.88
12.56
13.14
13.76
14.65
15.96
17.91
20.32
22.90
25.38
27.58
29.57
31.68
34.32
37.81
42.54
48.15
54.10
59.83
64.97
69.58
74.14
79.34
85.71
93.76
103.00
112.62
121.73
129.77
136.75
143.30
150.75
157.77
166.64
177.95
191.79
206.97
220.57
228.25
225.36
208.53
176.87
132.76
80.05
23.07
-34.94
-92.44
-149.16
-205.23
-260.37
-313.74
-363.87
-409.83
-450.91
-486.50
-515.74
-537.23
-549.22
-549.96
-538.37
-514.21
-478.67
-433.88
-382.45
-327.02
-269.84
-212.63
-156.66
-102.95
-52.37
-5.90
35.58
71.43
101.35
125.50
144.38
158.69
169.15
176.37
180.75
182.57
182.07
179.51
175.23
169.65
163.18
156.15
148.81
141.30
133.69
126.02
118.33
110.69
103.16
95.80
88.68
81.83
75.25
68.95
62.95
57.25
51.86
46.78
42.03
37.59
33.45
29.61
26.07
22.81
19.83
17.11
14.67
12.48
10.54
8.83
7.35
6.07
4.97
4.05
3.27
2.62
2.09
1.65
1.30
1.01
0.79
0.61
0.47
0.37
0.28
0.22
0.18
0.14
0.12
0.11
0.10
0.11
0.12
0.13
0.15
0.18
0.21
0.25
0.29
0.33
0.37
0.42
0.46
0.51
0.56
0.61
0.67
0.72
0.79
0.85
0.93
1.01
1.10
1.20
1.31
1.44
1.58
1.74
1.91
2.11
2.32
2.56
2.83
3.12
3.44
3.79
4.18
4.60
5.05
5.54
6.07
6.64
7.25
7.90
8.60
9.34
10.12
10.95
11.83
12.75
13.72
14.75
15.83
16.99
18.21
19.46
20.72
21.95
23.05
23.94
24.50
24.61
24.15
23.03
21.21
18.67
15.48
11.71
7.53
3.12
-1.30
-5.53
-9.36
-12.63
-15.22
-17.08
-18.22
-18.71
-18.65
-18.17
-17.38
-16.36
-15.18
-13.86
-12.43
-10.93
-9.36
-7.78
-6.25
-4.75
-3.26
-1.69
-0.02
1.80
3.75
5.83
7.88
9.79
11.57
13.30
15.10
17.12
19.42
22.00
24.81
27.46
29.74
31.67
33.42
35.30
37.59
40.42
43.70
47.27
50.37
52.56
53.81
54.44
54.98
55.92
57.48
59.50
61.55
62.44
61.38
58.12
52.86
45.94
37.46
26.76
12.06
-4.39
-22.73
-43.53
-67.45
-94.78
-124.97
-156.05
-184.60
-206.30
-217.24
-216.03
-203.74
-183.64
-160.09
-136.88
-116.23
-98.60
-83.38
-69.73
-57.78
-47.83
-40.03
-34.00
-28.91
-23.83
-18.23
-12.20
-6.30
-1.60
1.20
2.00
1.22
-0.32
-1.78
-2.48
-2.01
-0.25
2.52
6.00
9.84
13.77
17.55
21.02
24.04
26.54
28.46
29.72
30.36
30.48
30.30
30.07
29.98
30.12
30.44
30.76
30.85
30.58
30.00
29.28
28.68
28.34
28.24
28.22
28.02
27.49
26.58
25.34
23.86
22.19
20.33
18.32
16.28
14.40
12.82
11.59
10.58
9.59
8.38
6.86
5.05
3.08
1.08
-0.89
-2.83
-4.81
-6.94
-9.29
-11.91
-14.80
-17.77
-20.47
-22.45
-23.21
-22.40
-19.96
-16.15
-11.51
-6.65
-2.13
1.72
4.80
7.18
9.04
10.49
11.60
12.41
12.95
13.27
13.44
13.55
13.65
13.79
14.03
14.37
14.83
15.39
15.93
16.33
16.44
16.22
15.73
15.16
14.66
14.27
13.88
13.27
12.29
10.91
9.27
7.55
5.88
4.30
2.75
1.24
-0.12
-1.18
-1.81
-2.11
-2.32
-2.81
-3.79
-5.32
-7.21
-9.21
-11.07
-12.71
-14.21
-15.77
-17.64
-20.02
-23.04
-26.55
-30.13
-33.11
-34.75
-34.49
-32.13
-28.02
-22.85
-17.46
-12.55
-8.50
-5.34
-2.82
-0.60
1.59
3.85
6.17
8.39
10.39
12.12
13.61
14.93
16.11
17.15
17.94
18.42
18.57
18.51
18.40
18.39
18.53
18.70
18.73
18.41
17.64
16.46
15.03
13.55
12.14
10.86
9.67
8.51
7.32
6.04
4.67
3.15
1.46
-0.38
-2.30
-4.16
-5.87
-7.44
-8.98
-10.66
-12.68
-15.12
-17.93
-21.02
-24.27
-27.61
-31.06
-34.68
-38.52
-42.69
-47.28
-52.40
-58.07
-64.15
-70.29
-75.98
-80.63
-83.78
-85.29
-85.36
-84.53
-83.57
-83.36
-84.73
-88.19
-93.74
-100.65
-107.72
-113.52
-116.87
-117.13
-114.03
-107.48
-97.38
-83.77
-67.08
-48.38
-29.28
-11.41
4.06
16.70
26.62
34.17
39.80
44.14
48.42
54.66
65.39
82.84
107.94
139.67
175.12
210.29
241.33
265.68
282.48
292.45
297.03
297.61
294.97
289.33
280.70
269.30
255.75
240.83
225.24
209.24
192.85
176.02
158.94
142.01
125.73
110.51
96.48
83.57
71.70
60.88
51.26
42.96
35.94
29.95
24.58
19.37
13.98
8.23
2.11
-4.26
-10.80
-17.36
-23.80
-29.91
-35.44
-40.08
-43.59
-45.90
-47.14
-47.69
-48.07
-48.80
-50.27
-52.58
-55.54
-58.66
-61.35
-63.05
-63.46
-62.62
-60.94
-58.98
-57.22
-55.84
-54.68
-53.36
-51.51
-49.14
-46.66
-44.79
-44.25
-45.41
-48.04
-51.38
-54.41
-56.30
-56.71
-55.81
-54.15
-52.29
-50.55
-49.02
-47.63
-46.38
-45.38
-44.72
-44.27
-43.62
-42.14
-39.43
-35.49
-30.87
-26.46
-23.07
-21.26
-21.22
-22.88
-25.95
-29.93
-34.05
-37.45
-39.33
-39.32
-37.59
-34.67
-31.18
-27.48
-23.62
-19.54
-15.24
-11.04
-7.39
-4.63
-2.80
-1.56
-0.43
0.99
2.83
5.07
7.57
10.13
12.53
14.44
15.52
15.57
14.70
13.35
12.22
11.90
12.62
14.12
15.77
16.91
17.19
16.71
15.97
15.61
16.12
17.62
19.89
22.45
24.84
26.69
27.85
28.42
28.81
29.71
31.99
36.43
43.18
51.34
58.69
62.22
59.23
48.63
31.81
12.38
-5.11
-16.83
-21.05
-18.58
-12.02
-4.59
1.00
3.17
1.41
-4.00
-12.45
-23.21
-35.53
-48.73
-62.29
-75.76
-88.63
-100.26
-109.85
-116.59
-119.79
-119.08
-114.42
-106.20
-95.27
-83.02
-71.36
-62.40
-57.93
-58.78
-64.35
-72.59
-80.72
-86.10
-87.14
-83.70
-76.84
-68.12
-58.97
-50.22
-42.28
-35.38
-29.91
-26.36
-25.08
-25.94
-28.13
-30.42
-31.52
-30.62
-27.69
-23.49
-19.21
-16.11
-14.94
-15.72
-17.79
-20.11
-21.80
-22.46
-22.34
-22.17
-22.83
-25.00
-28.98
-34.72
-41.87
-49.88
-57.99
-65.33
-70.90
-73.83
-73.69
-70.66
-65.53
-59.55
-53.91
-49.37
-46.06
-43.48
-40.83
-37.40
-32.90
-27.59
-22.01
-16.80
-12.36
-8.73
-5.70
-2.96
-0.29
2.46
5.44
8.86
13.00
17.98
23.69
29.72
35.58
40.92
45.57
49.42
52.15
53.11
51.47
46.79
39.40
30.67
22.76
18.14
18.80
25.70
38.45
55.29
73.49
89.91
101.89
107.92
108.03
103.67
96.99
90.08
84.29
80.08
77.12
74.82
72.59
70.08
67.11
63.58
59.46
54.77
49.75
44.80
40.48
37.22
35.08
33.71
32.48
30.93
28.98
26.98
25.40
24.27
23.07
20.86
16.82
10.78
3.35
-4.47
-11.69
-17.85
-22.88
-26.88
-29.84
-31.52
-31.72
-30.47
-28.23
-25.66
-23.35
-21.57
-20.24
-19.05
-17.63
-15.82
-13.68
-11.50
-9.64
-8.37
-7.73
-7.51
-7.42
-7.24
-7.08
-7.37
-8.57
-10.85
-13.85
-16.65
-18.24
-17.99
-16.05
-13.42
-11.38
-10.88
-11.95
-13.68
-14.77
-14.24
-12.05
-9.05
-6.45
-5.03
-4.68
-4.58
-3.70
-1.46
1.97
5.96
9.83
13.19
15.99
18.21
19.75
20.42
20.17
19.26
18.21
17.53
17.51
18.07
18.93
19.81
20.60
21.26
21.69
21.74
21.25
20.19
18.80
17.41
16.30
15.51
14.82
14.02
12.97
11.73
10.47
9.26
8.10
6.86
5.48
3.96
2.34
0.65
-1.16
-3.13
-5.25
-7.42
-9.52
-11.51
-13.41
-15.26
-17.06
-18.76
-20.35
-22.10
-24.43
-27.77
-32.21
-37.25
-41.87
-44.89
-45.40
-43.18
-38.70
-32.83
-26.50
-20.36
-14.71
-9.65
-5.23
-1.52
1.45
3.78
5.78
7.93
10.66
14.20
18.42
22.88
26.93
29.90
31.30
30.70
27.83
22.49
14.54
4.11
-8.35
-22.01
-35.74
-48.34
-58.73
-66.21
-70.52
-71.86
-70.69
-67.67
-63.47
-58.66
-53.73
-48.97
-44.53
-40.40
-36.50
-32.71
-28.98
-25.38
-22.06
-19.16
-16.78
-14.89
-13.31
-11.90
-10.54
-9.28
-8.27
-7.65
-7.42
-7.37
-7.18
-6.57
-5.45
-4.03
-2.82
-2.32
-2.83
-4.31
-6.31
-8.20
-9.41
-9.60
-8.70
-6.79
-3.85
0.34
6.16
13.90
23.53
34.47
45.55
55.19
61.42
62.40
56.63
43.61
24.30
1.34
-21.24
-39.11
-48.95
-49.65
-42.68
-31.50
-20.08
-11.43
-6.62
-4.84
-4.20
-2.85
0.17
4.60
9.16
12.04
11.55
6.66
-2.53
-14.71
-27.62
-38.73
-46.12
-49.08
-48.25
-45.18
-41.48
-38.16
-35.37
-32.67
-29.56
-25.97
-22.26
-19.03
-16.71
-15.49
-15.38
-16.46
-19.02
-23.29
-29.11
-35.62
-41.47
-45.30
-46.56
-45.89
-45.19
-46.92
-53.28
-65.30
-82.51
-102.89
-123.50
-141.16
-153.28
-158.35
-156.25
-148.18
-136.23
-122.72
-109.50
-97.38
-86.04
-74.33
-60.96
-45.12
-26.96
-7.49
11.85
29.77
45.54
59.14
70.85
81.01
89.70
96.82
102.35
106.51
109.80
112.69
115.40
117.70
119.02
118.86
117.07
114.08
110.74
107.97
106.26
105.57
105.38
105.12
104.52
103.87
103.79
104.79
106.87
109.37
111.06
110.68
107.42
101.27
93.11
84.38
76.56
70.55
66.28
62.64
57.91
50.45
39.50
25.62
10.63
-3.06
-13.27
-18.86
-20.03
-18.08
-14.90
-12.26
-11.28
-12.12
-13.95
-15.29
-14.64
-11.19
-5.33
1.24
6.16
7.34
3.88
-3.50
-12.72
-20.94
-25.48
-24.28
-16.45
-2.42
15.99
35.81
53.53
66.04
71.56
70.19
63.87
55.64
48.60
44.94
45.48
49.85
57.08
66.16
76.56
88.40
102.41
119.51
140.00
162.67
184.51
201.32
209.24
206.55
194.72
178.22
162.67
152.54
149.14
150.33
151.83
149.53
141.14
126.55
106.72
82.34
53.53
20.61
-14.33
-46.80
-70.84
-81.50
-77.28
-61.18
-39.34
-18.20
-1.80
9.17
16.12
20.18
20.60
14.74
-0.26
-25.30
-58.25
-94.43
-128.64
-157.35
-180.22
-199.87
-220.21
-244.10
-271.53
-299.10
-321.15
-332.04
-328.20
-309.47
-278.73
-240.50
-199.34
-158.78
-121.14
-87.91
-60.22
-38.81
-23.81
-14.44
-9.16
-6.05
-3.44
-0.44
3.09
6.73
9.88
12.15
13.36
13.66
13.36
12.80
12.24
11.71
10.94
9.33
6.20
1.05
-6.12
-14.77
-23.95
-32.68
-40.40
-47.04
-52.99
-58.67
-64.08
-68.66
-71.35
-71.04
-67.09
-59.61
-49.50
-38.16
-27.02
-17.18
-9.12
-2.74
2.47
7.13
11.80
16.77
22.08
27.54
32.85
37.73
42.02
45.70
48.83
51.55
53.99
56.24
58.31
60.23
61.97
63.49
64.71
65.53
65.84
65.54
64.62
63.17
61.32
59.30
57.35
55.60
54.10
52.73
51.26
49.49
47.29
44.62
41.63
38.52
35.47
32.59
29.92
27.34
24.69
21.74
18.30
14.24
9.54
4.35
-1.08
-6.42
-11.39
-15.90
-20.08
-24.32
-29.12
-34.97
-42.09
-50.28
-58.74
-66.23
-71.35
-72.90
-70.29
-63.74
-54.22
-43.18
-32.08
-22.07
-13.74
-7.09
-1.65
3.25
8.20
13.52
19.12
24.58
29.39
33.14
35.74
37.46
38.69
39.84
41.15
42.65
44.30
46.02
47.77
49.45
50.85
51.69
51.70
50.74
48.88
46.44
43.81
41.33
39.14
37.14
35.11
32.90
30.47
28.04
25.84
23.98
22.31
20.45
17.98
14.62
10.43
5.71
0.90
-3.67
-7.91
-11.93
-15.97
-20.32
-25.31
-31.22
-38.17
-45.94
-53.77
-60.44
-64.54
-64.95
-61.25
-53.98
-44.42
-34.16
-24.65
-16.76
-10.76
-6.44
-3.33
-0.99
0.90
2.48
3.81
4.93
5.92
6.79
7.52
7.91
7.62
6.33
3.88
0.44
-3.55
-7.63
-11.54
-15.50
-20.17
-26.34
-34.58
-44.88
-56.61
-68.78
-80.35
-90.78
-100.19
-109.37
-119.50
-131.70
-146.76
-164.69
-184.48
-204.03
-220.39
-230.47
-231.96
-224.09
-207.94
-186.05
-161.38
-136.40
-112.41
-89.72
-68.07
-47.24
-27.26
-8.24
10.00
28.14
47.20
68.24
91.97
118.62
147.78
178.45
209.06
237.67
262.36
281.81
295.72
304.79
310.32
313.37
314.38
313.00
308.70
301.28
291.31
279.96
268.51
257.78
247.98
238.82
229.97
221.32
213.05
205.36
198.18
191.04
183.24
174.15
163.56
151.88
140.01
129.03
119.82
112.74
107.46
103.16
98.76
93.23
85.84
76.30
64.74
51.73
38.09
24.73
12.49
1.92
-6.75
-13.65
-19.18
-23.90
-28.41
-33.16
-38.31
-43.75
-49.11
-53.97
-57.95
-60.88
-62.84
-64.03
-64.73
-65.17
-65.48
-65.68
-65.73
-65.57
-65.08
-64.17
-62.79
-61.00
-58.93
-56.86
-55.03
-53.61
-52.61
-51.84
-51.03
-49.91
-48.40
-46.62
-44.87
-43.45
-42.52
-41.98
-41.61
-41.19
-40.69
-40.25
-40.12
-40.41
-40.99
-41.52
-41.53
-40.69
-38.94
-36.46
-33.62
-30.74
-28.04
-25.58
-23.34
-21.28
-19.39
-17.73
-16.42
-15.59
-15.28
-15.47
-15.98
-16.59
-17.12
-17.50
-17.74
-17.92
-18.13
-18.35
-18.54
-18.61
-18.56
-18.44
-18.40
-18.60
-19.14
-20.09
-21.38
-22.85
-24.29
-25.50
-26.40
-27.05
-27.62
-28.16
-28.57
-28.56
-27.86
-26.41
-24.52
-22.77
-21.76
-21.76
-22.56
-23.59
-24.24
-24.15
-23.42
-22.46
-21.74
-21.49
-21.61
-21.74
-21.55
-20.93
-20.05
-19.20
-18.64
-18.38
-18.25
-18.02
-17.60
-17.13
-16.93
-17.24
-18.09
-19.27
-20.46
-21.33
-21.76
-21.74
-21.44
-20.99
-20.56
-20.29
-20.23
-20.37
-20.54
-20.55
-20.22
-19.51
-18.50
-17.35
-16.20
-15.02
-13.73
-12.30
-10.83
-9.59
-8.86
-8.82
-9.47
-10.64
-12.08
-13.54
-14.73
-15.40
-15.27
-14.20
-12.25
-9.70
-7.06
-4.80
-3.25
-2.50
-2.43
-2.80
-3.41
-4.04
-4.54
-4.77
-4.69
-4.33
-3.86
-3.53
-3.55
-4.01
-4.86
-5.94
-7.09
-8.16
-9.11
-9.93
-10.67
-11.36
-12.02
-12.69
-13.37
-14.09
-14.81
-15.50
-16.05
-16.33
-16.24
-15.71
-14.82
-13.70
-12.54
-11.51
-10.70
-10.07
-9.52
-8.99
-8.47
-8.08
-7.96
-8.20
-8.76
-9.45
-10.02
-10.25
-10.15
-9.83
-9.51
-9.35
-9.40
-9.57
-9.78
-9.99
-10.26
-10.62
-10.95
-10.94
-10.16
-8.30
-5.37
-1.79
1.73
4.43
5.85
5.84
4.70
2.93
1.14
-0.20
-0.78
-0.54
0.38
1.70
3.00
3.87
3.81
2.46
-0.42
-4.76
-10.08
-15.54
-20.14
-23.05
-23.95
-23.12
-21.29
-19.23
-17.42
-15.89
-14.38
-12.64
-10.63
-8.64
-7.16
-6.67
-7.40
-9.21
-11.55
-13.66
-14.80
-14.63
-13.40
-11.88
-11.01
-11.40
-13.00
-15.02
-16.48
-16.63
-15.43
-13.39
-11.34
-9.96
-9.50
-9.89
-10.82
-12.02
-13.33
-14.67
-16.03
-17.42
-18.83
-20.18
-21.33
-21.98
-21.81
-20.59
-18.37
-15.48
-12.51
-10.08
-8.60
-8.16
-8.46
-8.96
-9.04
-8.20
-6.17
-2.98
1.10
5.61
10.04
13.93
16.99
19.08
20.24
20.53
20.06
18.92
17.31
15.49
13.76
12.36
11.42
10.87
10.51
10.14
9.65
9.11
8.62
8.31
8.17
8.07
7.80
7.17
6.09
4.60
2.89
1.17
-0.33
-1.51
-2.36
-2.95
-3.39
-3.79
-4.21
-4.69
-5.21
-5.71
-6.09
-6.29
-6.31
-6.29
-6.45
-7.08
-8.34
-10.27
-12.71
-15.30
-17.63
-19.23
-19.77
-19.07
-17.24
-14.59
-11.60
-8.71
-6.24
-4.33
-2.97
-2.06
-1.53
-1.31
-1.23
-1.09
-0.65
0.22
1.43
2.71
3.67
4.10
4.02
3.71
3.54
3.77
4.42
5.22
5.84
6.01
5.68
5.00
4.25
3.70
3.51
3.66
3.99
4.26
4.27
3.92
3.31
2.66
2.19
2.03
2.11
2.18
2.02
1.50
0.67
-0.29
-1.23
-2.12
-2.98
-3.92
-4.96
-6.11
-7.39
-8.92
-10.86
-13.31
-16.13
-18.92
-21.14
-22.28
-22.15
-20.87
-18.88
-16.65
-14.59
-12.83
-11.30
-9.86
-8.33
-6.64
-4.79
-2.88
-1.00
0.79
2.42
3.88
5.14
6.16
6.90
7.38
7.70
8.02
8.50
9.24
10.18
11.19
12.05
12.58
12.73
12.48
11.91
11.08
10.06
8.92
7.75
6.62
5.60
4.69
3.88
3.15
2.50
1.95
1.49
1.08
0.69
0.26
-0.20
-0.71
-1.29
-1.98
-2.81
-3.74
-4.72
-5.66
-6.53
-7.52
-8.94
-11.14
-14.33
-18.33
-22.57
-26.22
-28.50
-28.95
-27.59
-24.88
-21.47
-17.97
-14.68
-11.66
-8.76
-5.92
-3.14
-0.55
1.76
3.75
5.55
7.29
9.08
10.92
12.72
14.44
16.09
17.77
19.58
21.49
23.31
24.74
25.53
25.58
25.07
24.40
24.03
24.29
25.28
26.86
28.70
30.43
31.74
32.38
32.19
31.15
29.30
26.81
23.97
21.20
18.99
17.77
17.79
18.93
20.69
22.30
22.95
22.15
19.93
16.90
13.98
12.02
11.43
12.06
13.28
14.39
14.82
14.29
12.67
9.84
5.66
0.05
-6.81
-14.47
-22.43
-30.53
-39.13
-48.97
-60.66
-74.04
-88.01
-100.81
-110.86
-117.50
-121.28
-123.53
-125.56
-127.90
-130.07
-130.98
-129.58
-125.48
-119.12
-111.44
-103.38
-95.50
-87.89
-80.34
-72.69
-65.03
-57.70
-51.13
-45.52
-40.71
-36.22
-31.42
-25.90
-19.61
-12.92
-6.48
-0.89
3.46
6.62
8.92
10.84
12.84
15.10
17.51
19.80
21.67
22.91
23.45
23.37
22.74
21.59
19.90
17.71
15.14
12.33
9.41
6.37
3.04
-0.74
-5.02
-9.62
-14.26
-18.66
-22.82
-27.02
-31.71
-37.30
-43.96
-51.50
-59.41
-66.91
-73.08
-76.97
-77.72
-74.86
-68.44
-59.17
-48.21
-36.90
-26.36
-17.18
-9.39
-2.59
3.76
10.09
16.58
23.17
29.64
35.79
41.47
46.57
51.07
54.96
58.29
61.18
63.82
66.39
68.98
71.53
73.79
75.42
76.11
75.71
74.26
71.92
68.94
65.51
61.84
58.05
54.26
50.49
46.69
42.69
38.34
33.53
28.35
23.04
17.93
13.23
8.92
4.65
-0.09
-5.86
-13.01
-21.51
-30.85
-40.07
-47.92
-53.13
-54.71
-52.30
-46.30
-37.73
-27.98
-18.33
-9.66
-2.22
4.21
10.03
15.57
20.87
25.76
29.94
33.26
35.75
37.64
39.29
40.99
42.92
45.07
47.33
49.54
51.56
53.31
54.80
56.01
56.89
57.23
56.73
55.06
51.98
47.54
42.04
36.01
30.01
24.44
19.45
14.88
10.39
5.58
0.09
-6.26
-13.52
-21.42
-29.38
-36.49
-41.64
-43.82
-42.42
-37.46
-29.65
-20.14
-10.20
-0.88
7.22
13.95
19.42
23.80
27.20
29.59
30.91
31.22
30.72
29.77
28.77
28.03
27.73
27.93
28.59
29.70
31.28
33.29
35.57
37.88
39.82
41.02
41.25
40.44
38.68
36.15
33.04
29.52
25.75
21.82
17.77
13.44
8.50
2.57
-4.68
-13.37
-23.43
-34.72
-47.14
-60.65
-75.02
-89.45
-102.43
-111.96
-116.21
-114.41
-107.17
-96.19
-83.39
-70.19
-57.36
-45.52
-35.78
-29.90
-29.47
-34.73
-43.81
-52.94
-57.87
-55.68
-45.80
-29.96
-10.98
8.60
27.21
44.20
59.13
71.39
80.29
85.58
88.05
89.54
92.47
98.95
109.95
125.06
142.76
160.89
177.33
190.22
198.06
199.84
195.08
184.08
167.96
148.61
128.32
109.37
93.69
82.57
76.44
74.75
76.00
77.92
78.13
74.78
67.09
55.46
41.00
25.02
8.55
-7.60
-22.80
-36.43
-47.93
-56.88
-63.07
-66.32
-66.33
-62.82
-55.73
-45.57
-33.58
-21.47
-10.82
-2.58
3.19
7.02
9.74
12.00
14.18
16.39
18.59
20.58
22.24
23.64
25.21
27.77
32.19
39.00
47.96
58.08
68.00
76.53
82.99
87.28
89.57
90.04
88.74
85.87
82.01
78.18
75.61
75.21
77.28
81.39
86.58
91.79
96.17
99.24
100.98
101.72
102.06
102.69
104.21
106.85
110.32
113.81
116.19
116.19
112.69
104.85
92.01
73.81
50.18
21.55
-11.07
-45.99
-80.98
-113.47
-141.01
-161.63
-174.33
-179.33
-178.12
-173.18
-167.31
-162.73
-160.31
-159.24
-157.50
-152.86
-144.02
-131.36
-116.82
-103.09
-92.35
-85.44
-81.75
-79.74
-77.90
-75.51
-72.80
-70.46
-68.96
-68.04
-66.74
-63.79
-58.29
-50.13
-39.99
-29.00
-18.29
-8.69
-0.62
5.68
10.14
12.77
13.83
13.95
14.01
14.94
17.34
21.28
26.18
31.08
34.89
36.69
35.95
32.60
26.99
19.79
11.91
4.26
-2.32
-7.28
-10.45
-12.07
-12.76
-13.32
-14.42
-16.50
-19.56
-23.32
-27.30
-31.11
-34.56
-37.70
-40.82
-44.33
-48.60
-53.84
-59.90
-66.16
-71.57
-74.86
-74.92
-71.23
-64.05
-54.50
-44.05
-34.15
-25.77
-19.21
-14.19
-10.14
-6.50
-2.85
0.99
5.02
9.10
13.00
16.49
19.41
21.72
23.55
25.15
26.75
28.46
30.18
31.70
32.72
33.11
32.80
31.88
30.49
28.67
26.44
23.76
20.69
17.38
14.06
10.99
8.33
6.06
4.03
2.01
-0.20
-2.71
-5.48
-8.37
-11.26
-14.08
-16.87
-19.65
-22.46
-25.32
-28.30
-31.58
-35.49
-40.37
-46.30
-52.93
-59.29
-64.02
-65.76
-63.61
-57.51
-48.29
-37.36
-26.31
-16.42
-8.33
-2.13
2.56
6.23
9.28
11.91
14.15
16.00
17.52
18.80
20.00
21.18
22.32
23.32
24.12
24.75
25.32
25.94
26.61
27.15
27.21
26.43
24.64
21.91
18.59
15.13
11.90
9.07
6.55
4.09
1.42
-1.59
-4.86
-8.18
-11.34
-14.27
-17.09
-20.07
-23.54
-27.71
-32.70
-38.51
-44.99
-51.77
-58.17
-63.16
-65.66
-64.80
-60.36
-52.96
-43.92
-34.79
-26.89
-20.86
-16.62
-13.54
-10.88
-8.11
-5.09
-2.02
0.78
3.11
5.01
6.69
8.39
10.20
11.98
13.49
14.56
15.27
15.96
17.06
18.78
21.00
23.20
24.72
25.07
24.17
22.39
20.40
18.83
17.94
17.47
16.72
14.92
11.55
6.64
0.78
-5.17
-10.43
-14.63
-17.88
-20.67
-23.64
-27.27
-31.77
-37.12
-43.02
-48.92
-53.97
-57.15
-57.44
-54.17
-47.34
-37.74
-26.75
-16.00
-6.75
0.42
5.70
9.83
13.64
17.72
22.15
26.67
30.79
34.17
36.66
38.36
39.51
40.32
40.94
41.45
41.89
42.34
42.88
43.53
44.22
44.75
44.87
44.36
43.10
41.18
38.82
36.33
34.00
31.97
30.23
28.58
26.85
24.86
22.52
19.87
16.95
13.88
10.76
7.71
4.86
2.24
-0.16
-2.48
-4.87
-7.47
-10.37
-13.59
-17.13
-20.92
-24.87
-28.78
-32.43
-35.63
-38.41
-41.07
-44.13
-48.20
-53.60
-60.08
-66.74
-72.17
-74.81
-73.49
-67.90
-58.70
-47.35
-35.61
-25.00
-16.36
-9.81
-4.84
-0.68
3.36
7.75
12.65
17.90
23.17
28.00
32.00
34.93
36.78
37.80
38.31
38.62
38.92
39.32
39.86
40.57
41.44
42.36
43.04
43.12
42.27
40.43
37.85
35.03
32.52
30.70
29.59
28.86
28.02
26.57
24.24
21.03
17.24
13.42
10.17
8.03
7.29
7.83
9.15
10.53
11.25
10.81
9.09
6.28
2.64
-1.64
-6.49
-11.90
-17.74
-23.70
-29.29
-34.02
-37.62
-40.21
-42.33
-44.78
-48.34
-53.52
-60.25
-67.77
-74.75
-79.55
-80.74
-77.56
-70.18
-59.73
-47.88
-36.33
-26.29
-18.25
-11.98
-6.83
-2.05
2.91
8.33
14.15
20.07
25.67
30.46
34.06
36.30
37.25
37.26
36.78
36.29
36.16
36.50
37.21
38.00
38.48
38.37
37.54
36.08
34.27
32.40
30.66
29.06
27.51
25.93
24.28
22.64
21.11
19.67
18.19
16.43
14.21
11.55
8.64
5.80
3.31
1.24
-0.55
-2.32
-4.28
-6.55
-9.10
-11.87
-14.80
-17.89
-21.15
-24.49
-27.77
-30.82
-33.63
-36.41
-39.59
-43.65
-48.82
-54.90
-61.12
-66.23
-68.89
-68.01
-63.17
-54.80
-44.04
-32.47
-21.57
-12.32
-5.06
0.50
4.97
8.96
12.84
16.71
20.43
23.81
26.66
28.88
30.46
31.46
32.07
32.50
33.03
33.80
34.80
35.85
36.65
36.95
36.60
35.62
34.09
32.15
29.93
27.58
25.31
23.31
21.75
20.64
19.87
19.22
18.45
17.44
16.12
14.55
12.75
10.76
8.61
6.30
3.89
1.37
-1.29
-4.17
-7.33
-10.79
-14.43
-18.05
-21.42
-24.39
-26.98
-29.38
-31.96
-35.06
-38.98
-43.81
-49.35
-55.00
-59.78
-62.55
-62.21
-58.17
-50.57
-40.37
-29.08
-18.33
-9.33
-2.64
1.93
5.09
7.65
10.26
13.16
16.27
19.29
21.95
24.08
25.72
26.98
27.94
28.66
29.17
29.54
29.92
30.51
31.37
32.39
33.22
33.42
32.62
30.74
27.95
24.68
21.42
18.51
16.13
14.23
12.63
11.11
9.45
7.52
5.32
2.98
0.72
-1.26
-2.86
-4.17
-5.52
-7.25
-9.62
-12.66
-16.14
-19.68
-22.90
-25.62
-27.91
-30.09
-32.66
-36.15
-40.98
-47.20
-54.35
-61.37
-66.80
-69.15
-67.40
-61.44
-52.10
-40.92
-29.64
-19.65
-11.65
-5.62
-1.06
2.70
6.24
9.93
13.86
17.95
21.98
25.64
28.65
30.80
32.06
32.56
32.58
32.49
32.58
33.05
33.89
34.95
35.98
36.70
36.86
36.30
35.01
33.11
30.88
28.62
26.62
25.02
23.74
22.58
21.27
19.68
17.77
15.65
13.45
11.24
9.02
6.71
4.30
1.85
-0.50
-2.64
-4.52
-6.23
-7.94
-9.88
-12.23
-15.06
-18.33
-21.90
-25.52
-28.95
-32.03
-34.77
-37.44
-40.51
-44.53
-49.88
-56.50
-63.69
-70.18
-74.45
-75.17
-71.75
-64.53
-54.69
-43.89
-33.66
-25.00
-18.19
-12.89
-8.50
-4.39
-0.18
4.29
8.95
13.64
18.17
22.27
25.75
28.40
30.18
31.20
31.74
32.20
32.97
34.23
35.92
37.72
39.15
39.79
39.45
38.19
36.32
34.25
32.30
30.67
29.36
28.25
27.20
26.04
24.63
22.92
20.93
18.77
16.66
14.77
13.16
11.74
10.26
8.48
6.30
3.80
1.22
-1.20
-3.34
-5.24
-7.10
-9.17
-11.68
-14.68
-18.09
-21.69
-25.21
-28.42
-31.30
-33.98
-36.82
-40.29
-44.70
-50.09
-56.02
-61.58
-65.55
-66.68
-64.15
-57.90
-48.68
-37.94
-27.30
-18.11
-11.04
-6.05
-2.52
0.32
3.13
6.24
9.71
13.38
17.02
20.37
23.19
25.37
26.90
27.94
28.72
29.48
30.37
31.35
32.35
33.22
33.91
34.34
34.46
34.12
33.17
31.53
29.29
26.73
24.25
22.19
20.67
19.58
18.63
17.49
15.92
13.84
11.37
8.72
6.14
3.82
1.85
0.11
-1.64
-3.73
-6.36
-9.58
-13.22
-16.93
-20.40
-23.45
-26.12
-28.71
-31.58
-35.17
-39.72
-45.23
-51.28
-57.10
-61.68
-63.98
-63.26
-59.30
-52.53
-43.91
-34.70
-26.06
-18.82
-13.25
-9.10
-5.82
-2.75
0.54
4.21
8.07
11.71
14.77
17.03
18.60
19.81
21.10
22.74
24.73
26.85
28.76
30.20
31.07
31.42
31.30
30.71
29.61
28.00
26.03
23.97
22.11
20.60
19.37
18.09
16.43
14.16
11.40
8.49
5.92
3.98
2.68
1.58
0.09
-2.37
-5.95
-10.36
-14.97
-19.11
-22.43
-25.05
-27.44
-30.27
-34.08
-39.16
-45.37
-52.22
-58.80
-63.97
-66.57
-65.76
-61.31
-53.76
-44.30
-34.42
-25.43
-18.11
-12.57
-8.38
-4.76
-1.00
3.42
8.58
14.20
19.75
24.64
28.44
31.00
32.49
33.24
33.64
33.99
34.44
35.05
35.79
36.62
37.41
37.96
38.04
37.44
36.06
34.01
31.61
29.28
27.44
26.28
25.71
25.38
24.82
23.67
21.82
19.46
16.94
14.61
12.59
10.79
8.93
6.77
4.29
1.66
-0.78
-2.82
-4.45
-5.95
-7.75
-10.23
-13.53
-17.47
-21.70
-25.75
-29.39
-32.61
-35.65
-38.89
-42.74
-47.53
-53.36
-59.96
-66.59
-72.11
-75.19
-74.69
-70.20
-62.18
-51.96
-41.22
-31.42
-23.39
-17.12
-12.04
-7.40
-2.60
2.62
8.22
13.95
19.47
24.48
28.70
32.00
34.38
36.00
37.12
37.97
38.70
39.37
39.98
40.57
41.19
41.86
42.43
42.69
42.33
41.21
39.46
37.43
35.61
34.34
33.71
33.48
33.22
32.51
31.20
29.37
27.27
25.21
23.34
21.62
19.84
17.80
15.35
12.51
9.47
6.45
3.67
1.21
-0.94
-2.96
-5.05
-7.49
-10.45
-13.99
-18.03
-22.34
-26.61
-30.59
-34.10
-37.17
-40.02
-43.03
-46.69
-51.40
-57.22
-63.72
-69.85
-74.16
-75.21
-72.13
-65.01
-54.94
-43.65
-32.89
-23.85
-16.93
-11.75
-7.58
-3.65
0.50
5.05
9.94
15.01
20.03
24.72
28.75
31.82
33.80
34.78
35.10
35.15
35.24
35.45
35.68
35.75
35.55
35.10
34.49
33.75
32.80
31.50
29.80
27.79
25.76
24.05
22.86
22.10
21.49
20.61
19.14
16.95
14.13
10.88
7.46
4.13
1.11
-1.45
-3.52
-5.22
-6.86
-8.80
-11.30
-14.43
-18.04
-21.79
-25.40
-28.78
-32.10
-35.77
-40.29
-46.13
-53.60
-62.69
-72.91
-83.25
-92.18
-97.96
-99.06
-94.77
-85.57
-73.09
-59.70
-47.82
-39.17
-34.40
-33.11
-34.15
-36.13
-37.74
-37.93
-35.93
-31.32
-24.15
-15.07
-5.27
3.75
10.68
14.71
15.77
14.33
10.93
5.82
-1.32
-11.27
-24.81
-42.29
-63.23
-86.29
-109.47
-130.60
-147.81
-159.91
-166.55
-168.17
-165.85
-161.20
-156.10
-152.39
-151.33
-153.11
-156.52
-159.14
-158.13
-151.19
-137.46
-117.71
-93.87
-68.07
-41.71
-15.01
12.93
43.48
77.70
115.66
156.07
196.33
232.83
261.65
279.58
285.30
280.35
269.17
257.91
252.26
255.41
267.00
283.78
301.39
316.15
326.04
330.39
329.12
322.11
309.38
291.70
270.98
249.78
230.16
212.73
196.51
179.75
161.30
141.39
121.49
103.48
88.59
76.71
66.50
55.80
42.43
24.89
2.82
-22.84
-50.05
-76.17
-98.72
-115.95
-127.21
-132.94
-134.23
-132.40
-128.56
-123.53
-117.84
-111.94
-106.23
-101.01
-96.34
-91.97
-87.49
-82.50
-76.96
-71.22
-65.93
-61.75
-59.03
-57.67
-57.14
-56.82
-56.23
-55.25
-54.09
-53.14
-52.76
-53.11
-54.16
-55.76
-57.70
-59.74
-61.56
-62.72
-62.69
-61.05
-57.58
-52.46
-46.24
-39.66
-33.46
-28.08
-23.60
-19.76
-16.17
-12.48
-8.56
-4.51
-0.56
3.04
6.19
8.87
11.16
13.13
14.78
16.06
16.97
17.57
17.98
18.33
18.64
18.87
18.90
18.61
18.03
17.23
16.37
15.61
14.98
14.43
13.86
13.16
12.25
11.15
9.88
8.50
7.00
5.36
3.54
1.54
-0.59
-2.73
-4.80
-6.76
-8.67
-10.58
-12.57
-14.64
-16.80
-19.14
-21.82
-25.01
-28.80
-33.01
-37.08
-40.18
-41.48
-40.42
-36.98
-31.68
-25.48
-19.35
-14.03
-9.80
-6.56
-3.95
-1.60
0.75
3.16
5.58
7.89
9.98
11.75
13.16
14.18
14.83
15.17
15.29
15.32
15.38
15.63
16.13
16.82
17.50
17.86
17.60
16.57
14.86
12.75
10.57
8.54
6.62
4.63
2.36
-0.21
-2.92
-5.45
-7.54
-9.14
-10.44
-11.71
-13.24
-15.19
-17.60
-20.43
-23.65
-27.09
-30.39
-33.01
-34.25
-33.57
-30.78
-26.17
-20.47
-14.57
-9.24
-4.95
-1.69
0.85
3.15
5.61
8.38
11.33
14.12
16.40
17.97
18.88
19.39
19.83
20.47
21.40
22.55
23.76
24.84
25.67
26.18
26.39
26.31
25.98
25.41
24.57
23.48
22.16
20.72
19.28
17.91
16.63
15.37
13.99
12.41
10.58
8.59
6.54
4.54
2.64
0.84
-0.91
-2.69
-4.53
-6.49
-8.63
-11.00
-13.60
-16.43
-19.40
-22.36
-25.14
-27.62
-29.77
-31.77
-33.97
-36.75
-40.40
-44.85
-49.59
-53.78
-56.40
-56.59
-53.93
-48.63
-41.42
-33.38
-25.56
-18.73
-13.17
-8.77
-5.16
-1.95
1.20
4.46
7.91
11.51
15.12
18.52
21.43
23.63
25.05
25.79
26.10
26.27
26.56
27.09
27.86
28.78
29.68
30.40
30.77
30.68
30.08
29.03
27.67
26.17
24.71
23.41
22.29
21.25
20.15
18.82
17.20
15.31
13.29
11.38
9.74
8.42
7.30
6.15
4.75
2.99
0.95
-1.17
-3.15
-4.91
-6.57
-8.33
-10.42
-12.93
-15.74
-18.57
-21.10
-23.14
-24.67
-25.89
-27.17
-28.91
-31.47
-35.02
-39.43
-44.22
-48.59
-51.56
-52.24
-50.08
-45.16
-38.16
-30.17
-22.44
-15.93
-11.09
-7.81
-5.57
-3.67
-1.54
1.15
4.36
7.87
11.37
14.57
17.31
19.54
21.30
22.58
23.43
23.88
24.10
24.29
24.69
25.39
26.26
27.01
27.21
26.56
25.01
22.74
20.18
17.79
15.89
14.61
13.80
13.19
12.48
11.44
10.07
8.45
6.77
5.15
3.58
1.92
0.02
-2.23
-4.83
-7.66
-10.55
-13.35
-15.95
-18.31
-20.48
-22.58
-24.78
-27.29
-30.31
-33.87
-37.79
-41.54
-44.35
-45.33
-43.81
-39.55
-33.00
-25.17
-17.33
-10.67
-5.81
-2.73
-0.88
0.55
2.20
4.32
6.78
9.23
11.32
12.92
14.06
14.88
15.54
16.12
16.67
17.25
18.02
19.09
20.55
22.29
24.00
25.32
25.92
25.64
24.56
22.94
21.10
19.34
17.88
16.79
16.05
15.46
14.73
13.58
11.77
9.29
6.35
3.37
0.77
-1.18
-2.51
-3.51
-4.58
-6.11
-8.26
-11.02
-14.14
-17.37
-20.40
-23.08
-25.38
-27.43
-29.57
-32.20
-35.67
-40.06
-45.10
-50.00
-53.70
-55.18
-53.75
-49.37
-42.67
-34.72
-26.68
-19.44
-13.46
-8.75
-5.02
-1.91
0.95
3.84
6.92
10.27
13.83
17.34
20.48
22.89
24.40
25.06
25.19
25.20
25.46
26.13
27.14
28.20
29.00
29.29
29.02
28.27
27.20
25.96
24.64
23.27
21.93
20.68
19.62
18.79
18.12
17.44
16.51
15.16
13.38
11.33
9.21
7.17
5.22
3.22
1.01
-1.53
-4.36
-7.31
-10.19
-12.86
-15.38
-17.89
-20.53
-23.38
-26.36
-29.33
-32.21
-35.06
-38.07
-41.40
-44.99
-48.40
-50.79
-51.24
-48.97
-43.82
-36.33
-27.68
-19.26
-12.25
-7.22
-4.03
-2.04
-0.44
1.40
3.77
6.59
9.64
12.63
15.38
17.79
19.80
21.39
22.52
23.20
23.50
23.58
23.58
23.67
23.88
24.08
24.09
23.71
22.85
21.64
20.34
19.22
18.39
17.75
17.03
15.96
14.41
12.41
10.15
7.86
5.67
3.69
1.93
0.37
-1.03
-2.41
-3.96
-5.90
-8.33
-11.20
-14.30
-17.38
-20.26
-22.93
-25.57
-28.43
-31.80
-35.75
-40.05
-44.07
-46.90
-47.57
-45.41
-40.35
-33.02
-24.60
-16.41
-9.47
-4.27
-0.68
1.78
3.72
5.55
7.46
9.44
11.40
13.28
15.07
16.81
18.45
19.90
20.98
21.60
21.78
21.73
21.69
21.84
22.16
22.42
22.28
21.50
20.00
17.93
15.60
13.31
11.31
9.61
8.07
6.44
4.49
2.14
-0.54
-3.33
-5.98
-8.32
-10.31
-12.11
-14.02
-16.34
-19.38
-23.32
-28.16
-33.60
-38.95
-43.28
-45.57
-45.11
-41.66
-35.70
-28.20
-20.36
-13.21
-7.39
-3.00
0.28
2.99
5.59
8.32
11.14
13.84
16.21
18.16
19.73
21.05
22.18
23.13
23.86
24.38
24.78
25.24
25.86
26.61
27.28
27.56
27.18
26.07
24.34
22.28
20.24
18.51
17.24
16.39
15.77
15.06
13.99
12.43
10.46
8.34
6.34
4.62
3.10
1.57
-0.26
-2.56
-5.39
-8.61
-12.02
-15.42
-18.62
-21.52
-24.16
-26.70
-29.46
-32.82
-37.08
-42.23
-47.84
-53.01
-56.67
-57.84
-56.02
-51.36
-44.64
-36.93
-29.26
-22.28
-16.15
-10.65
-5.43
-0.23
4.97
10.02
14.66
18.65
21.83
24.15
25.67
26.54
26.91
27.00
26.98
27.04
27.29
27.79
28.55
29.47
30.36
30.99
31.14
30.70
29.69
28.29
26.71
25.15
23.73
22.50
21.41
20.38
19.31
18.06
16.54
14.68
12.49
10.06
7.56
5.19
3.11
1.38
-0.07
-1.43
-2.92
-4.74
-6.92
-9.41
-12.00
-14.54
-16.92
-19.18
-21.46
-24.01
-27.06
-30.82
-35.41
-40.66
-46.12
-50.94
-54.12
-54.72
-52.23
-46.82
-39.29
-30.88
-22.84
-16.06
-10.85
-6.98
-3.85
-0.80
2.60
6.52
10.79
15.07
18.99
22.28
24.82
26.65
27.86
28.58
28.94
29.07
29.07
29.06
29.14
29.33
29.58
29.73
29.62
29.09
28.03
26.52
24.73
22.97
21.52
20.56
20.04
19.70
19.21
18.27
16.78
14.84
12.66
10.50
8.48
6.58
4.66
2.55
0.11
-2.70
-5.82
-9.08
-12.25
-15.09
-17.47
-19.42
-21.15
-23.04
-25.51
-28.89
-33.23
-38.17
-42.89
-46.30
-47.34
-45.37
-40.44
-33.37
-25.41
-17.83
-11.51
-6.68
-3.08
-0.20
2.43
5.05
7.69
10.25
12.62
14.72
16.55
18.09
19.33
20.28
21.02
21.62
22.21
22.84
23.54
24.25
24.85
25.18
25.08
24.45
23.29
21.71
19.91
18.07
16.32
14.69
13.13
11.59
10.07
8.63
7.33
6.16
5.00
3.61
1.82
-0.41
-2.91
-5.35
-7.40
-8.93
-10.09
-11.31
-13.06
-15.79
-19.63
-24.43
-29.64
-34.49
-38.08
-39.61
-38.57
-34.99
-29.36
-22.59
-15.73
-9.67
-4.93
-1.59
0.69
2.38
3.95
5.68
7.64
9.72
11.76
13.66
15.38
16.92
18.28
19.49
20.55
21.49
22.34
23.13
23.83
24.35
24.54
24.29
23.54
22.33
20.75
18.96
17.13
15.41
13.90
12.64
11.54
10.44
9.16
7.58
5.75
3.85
2.08
0.57
-0.80
-2.32
-4.32
-6.99
-10.25
-13.76
-17.07
-19.87
-22.13
-24.12
-26.32
-29.14
-32.77
-37.00
-41.24
-44.65
-46.31
-45.53
-42.10
-36.38
-29.22
-21.77
-15.07
-9.76
-6.01
-3.50
-1.68
0.02
1.97
4.33
7.00
9.78
12.42
14.70
16.54
17.97
19.08
19.95
20.64
21.14
21.47
21.71
21.93
22.22
22.52
22.68
22.47
21.79
20.64
19.21
17.71
16.31
15.03
13.79
12.48
10.98
9.28
7.40
5.42
3.41
1.42
-0.47
-2.28
-4.01
-5.72
-7.43
-9.15
-10.84
-12.45
-14.06
-15.87
-18.23
-21.52
-25.99
-31.58
-37.75
-43.56
-47.76
-49.26
-47.42
-42.39
-34.99
-26.54
-18.40
-11.52
-6.32
-2.64
0.01
2.16
4.20
6.29
8.41
10.46
12.32
13.93
15.26
16.30
17.08
17.62
17.99
18.26
18.53
18.91
19.44
20.11
20.78
21.19
21.01
20.03
18.23
15.87
13.36
11.11
9.32
7.93
6.69
5.25
3.38
1.03
-1.72
-4.62
-7.39
-9.81
-11.78
-13.43
-15.07
-17.15
-20.03
-23.87
-28.41
-33.03
-36.84
-38.93
-38.63
-35.75
-30.59
-23.92
-16.74
-10.01
-4.45
-0.33
2.49
4.40
5.89
7.35
9.00
10.85
12.80
14.72
16.49
18.03
19.32
20.33
21.10
21.66
22.07
22.39
22.65
22.81
22.74
22.35
21.56
20.46
19.18
17.87
16.60
15.40
14.27
13.25
12.37
11.63
10.95
10.20
9.23
7.98
6.49
4.84
3.07
1.19
-0.93
-3.34
-6.06
-8.98
-11.89
-14.62
-17.04
-19.10
-20.91
-22.69
-24.77
-27.47
-30.92
-34.90
-38.80
-41.70
-42.73
-41.31
-37.48
-31.78
-25.12
-18.41
-12.30
-7.14
-2.97
0.32
2.83
4.67
6.00
6.97
7.78
8.60
9.49
10.41
11.27
11.97
12.48
12.85
13.21
13.65
14.20
14.74
15.08
14.98
14.34
13.20
11.79
10.39
9.17
8.08
6.88
5.27
3.07
0.37
-2.50
-5.15
-7.32
-9.00
-10.38
-11.76
-13.40
-15.47
-18.06
-21.16
-24.63
-28.17
-31.23
-33.11
-33.16
-31.00
-26.72
-20.92
-14.46
-8.25
-2.95
1.16
4.14
6.29
7.96
9.38
10.61
11.57
12.18
12.40
12.37
12.33
12.53
13.10
13.94
14.78
15.31
15.28
14.71
13.76
12.71
11.69
10.68
9.46
7.71
5.28
2.23
-1.10
-4.24
-6.81
-8.66
-9.99
-11.20
-12.76
-14.99
-17.97
-21.58
-25.53
-29.40
-32.68
-34.77
-35.11
-33.27
-29.24
-23.45
-16.75
-10.13
-4.37
0.17
3.59
6.27
8.65
10.96
13.18
15.11
16.54
17.41
17.85
18.16
18.61
19.38
20.45
21.63
22.67
23.38
23.73
23.84
23.87
23.90
23.84
23.47
22.54
20.94
18.76
16.28
13.85
11.73
9.98
8.49
7.02
5.37
3.44
1.19
-1.31
-4.02
-6.90
-9.92
-13.02
-16.18
-19.32
-22.44
-25.65
-29.13
-33.17
-37.88
-43.11
-48.27
-52.43
-54.54
-53.79
-50.01
-43.71
-36.01
-28.19
-21.32
-15.93
-11.96
-8.88
-6.04
-2.95
0.60
4.55
8.63
12.61
16.33
19.70
22.67
25.16
27.07
28.37
29.14
29.60
30.04
30.66
31.49
32.35
32.91
32.84
31.93
30.27
28.08
25.78
23.73
22.18
21.15
20.44
19.70
18.60
16.95
14.77
12.31
9.89
7.79
6.10
4.70
3.35
1.78
-0.18
-2.57
-5.33
-8.34
-11.47
-14.61
-17.67
-20.58
-23.37
-26.18
-29.33
-33.18
-37.96
-43.53
-49.27
-54.10
-56.83
-56.54
-52.90
-46.37
-38.03
-29.21
-21.08
-14.30
-8.97
-4.78
-1.21
2.18
5.68
9.40
13.36
17.40
21.30
24.71
27.32
28.93
29.60
29.60
29.34
29.19
29.34
29.76
30.31
30.81
31.10
31.09
30.72
29.99
28.97
27.79
26.58
25.45
24.40
23.35
22.24
21.05
19.82
18.62
17.43
16.13
14.54
12.60
10.37
8.04
5.83
3.82
1.94
-0.01
-2.23
-4.83
-7.75
-10.83
-13.86
-16.63
-19.01
-21.02
-22.86
-24.89
-27.55
-31.18
-35.85
-41.26
-46.68
-51.10
-53.47
-53.02
-49.45
-43.14
-35.03
-26.35
-18.29
-11.67
-6.72
-3.18
-0.50
1.93
4.50
7.37
10.45
13.55
16.41
18.88
20.88
22.42
23.65
24.74
25.85
27.08
28.47
29.91
31.28
32.34
32.88
32.72
31.80
30.24
28.29
26.26
24.40
22.80
21.39
20.00
18.43
16.64
14.65
12.59
10.56
8.57
6.57
4.45
2.11
-0.47
-3.24
-6.10
-8.93
-11.64
-14.25
-16.91
-19.88
-23.45
-27.81
-32.89
-38.20
-42.89
-45.93
-46.40
-43.86
-38.52
-31.22
-23.17
-15.62
-9.39
-4.78
-1.55
0.85
2.97
5.17
7.47
9.77
11.95
13.97
15.91
17.87
19.85
21.70
23.23
24.25
24.80
25.05
25.25
25.54
25.85
25.93
25.44
24.20
22.25
19.87
17.46
15.34
13.67
12.33
11.10
9.63
7.68
5.16
2.15
-1.05
-4.12
-6.73
-8.82
-10.52
-12.20
-14.30
-17.18
-21.04
-25.74
-30.86
-35.67
-39.31
-40.91
-39.89
-36.10
-29.95
-22.38
-14.49
-7.35
-1.62
2.56
5.43
7.47
9.13
10.66
12.13
13.48
14.64
15.64
16.64
17.76
19.03
20.39
21.64
22.59
23.15
23.34
23.24
22.91
22.32
21.30
19.78
17.75
15.40
13.04
10.92
9.15
7.57
5.85
3.65
0.81
-2.55
-6.08
-9.37
-12.17
-14.52
-16.73
-19.30
-22.72
-27.27
-32.78
-38.65
-43.85
-47.22
-47.79
-45.13
-39.51
-31.82
-23.33
-15.26
-8.44
-3.18
0.71
3.70
6.28
8.80
11.41
14.09
16.70
19.09
21.16
22.91
24.39
25.71
26.97
28.18
29.31
30.28
31.05
31.62
32.00
32.18
32.11
31.69
30.82
29.46
27.66
25.58
23.47
21.50
19.79
18.29
16.88
15.38
13.66
11.68
9.52
7.32
5.16
3.05
0.82
-1.75
-4.86
-8.54
-12.59
-16.63
-20.23
-23.11
-25.33
-27.27
-29.49
-32.57
-36.83
-42.22
-48.27
-54.13
-58.74
-61.00
-60.14
-55.91
-48.76
-39.72
-30.14
-21.33
-14.17
-8.88
-5.15
-2.31
0.36
3.34
6.77
10.53
14.33
17.93
21.15
23.93
26.27
28.20
29.73
30.88
31.74
32.42
33.01
33.57
34.07
34.38
34.35
33.88
32.88
31.40
29.60
27.67
25.86
24.33
23.10
22.05
20.99
19.79
18.36
16.75
15.05
13.32
11.52
9.57
7.39
5.06
2.68
0.41
-1.72
-3.82
-6.09
-8.78
-11.95
-15.47
-19.02
-22.23
-24.89
-26.99
-28.81
-30.74
-33.27
-36.73
-41.28
-46.76
-52.57
-57.73
-60.99
-61.25
-57.90
-51.12
-41.88
-31.66
-21.93
-13.74
-7.54
-3.12
0.04
2.61
5.09
7.73
10.56
13.47
16.26
18.73
20.75
22.26
23.32
24.01
24.46
24.79
25.12
25.55
26.13
26.85
27.64
28.37
28.84
28.83
28.22
27.05
25.51
23.89
22.51
21.46
20.61
19.67
18.29
16.28
13.66
10.71
7.78
5.19
3.06
1.27
-0.44
-2.38
-4.72
-7.45
-10.38
-13.23
-15.80
-18.05
-20.13
-22.26
-24.73
-27.74
-31.41
-35.72
-40.40
-44.89
-48.30
-49.67
-48.22
-43.72
-36.63
-28.04
-19.29
-11.61
-5.69
-1.63
0.99
2.85
4.59
6.59
8.92
11.35
13.59
15.35
16.59
17.48
18.28
19.28
20.55
22.03
23.53
24.85
25.90
26.72
27.40
28.02
28.54
28.84
28.72
28.01
26.67
24.79
22.55
20.12
17.67
15.27
12.94
10.67
8.43
6.23
4.00
1.66
-0.91
-3.75
-6.82
-9.92
-12.84
-15.42
-17.69
-19.90
-22.48
-25.84
-30.21
-35.47
-41.01
-45.91
-49.12
-49.78
-47.48
-42.38
-35.17
-26.82
-18.37
-10.66
-4.28
0.52
3.78
5.78
6.95
7.75
8.50
9.35
10.26
11.15
11.96
12.74
13.57
14.54
15.66
16.81
17.84
18.57
18.80
18.38
17.26
15.49
13.32
11.06
9.03
7.40
6.15
5.08
3.99
2.69
1.10
-0.77
-2.94
-5.36
-7.97
-10.66
-13.30
-15.84
-18.41
-21.33
-24.93
-29.45
-34.66
-39.83
-43.86
-45.61
-44.30
-39.90
-33.13
-25.20
-17.44
-10.76
-5.55
-1.65
1.39
3.98
6.33
8.45
10.25
11.71
12.96
14.19
15.57
17.15
18.86
20.51
21.97
23.15
24.07
24.77
25.25
25.48
25.35
24.84
23.95
22.78
21.47
20.06
18.54
16.83
14.90
12.82
10.71
8.75
6.98
5.24
3.27
0.77
-2.38
-6.04
-9.83
-13.35
-16.29
-18.63
-20.67
-22.86
-25.68
-29.46
-34.31
-40.05
-46.22
-52.05
-56.53
-58.61
-57.51
-53.03
-45.72
-36.72
-27.46
-19.18
-12.56
-7.66
-4.02
-0.95
2.17
5.72
9.74
14.05
18.29
22.10
25.24
27.62
29.34
30.59
31.53
32.28
32.85
33.25
33.50
33.61
33.64
33.54
33.23
32.59
31.54
30.06
28.26
26.29
24.35
22.58
21.09
19.89
18.89
17.92
16.79
15.33
13.49
11.37
9.13
6.98
5.04
3.27
1.50
-0.52
-2.97
-5.87
-9.06
-12.27
-15.25
-17.90
-20.30
-22.67
-25.27
-28.35
-32.13
-36.72
-42.15
-48.11
-53.95
-58.66
-61.04
-60.15
-55.64
-48.03
-38.52
-28.70
-19.93
-12.97
-7.84
-4.02
-0.78
2.48
6.00
9.71
13.39
16.85
19.99
22.76
25.17
27.18
28.74
29.81
30.46
30.82
31.08
31.38
31.74
32.08
32.21
31.94
31.19
30.03
28.63
27.21
25.95
24.92
24.10
23.40
22.74
22.01
21.13
19.95
18.37
16.37
14.07
11.74
9.65
8.00
6.77
5.72
4.51
2.81
0.44
-2.57
-6.01
-9.59
-13.01
-16.13
-18.94
-21.61
-24.44
-27.75
-31.81
-36.60
-41.83
-46.86
-50.81
-52.77
-52.06
-48.48
-42.40
-34.69
-26.52
-18.97
-12.75
-8.03
-4.54
-1.71
0.98
3.85
6.93
10.04
12.94
15.47
17.63
19.55
21.38
23.15
24.82
26.27
27.43
28.30
28.92
29.35
29.51
29.30
28.58
27.34
25.71
23.95
22.31
20.92
19.75
18.62
17.35
15.79
13.95
11.93
9.92
7.99
6.16
4.32
2.37
0.23
-2.04
-4.31
-6.48
-8.49
-10.42
-12.45
-14.78
-17.61
-21.11
-25.33
-30.15
-35.16
-39.66
-42.77
-43.68
-41.89
-37.45
-30.98
-23.44
-15.91
-9.24
-3.87
0.22
3.31
5.79
7.96
9.91
11.58
12.85
13.68
14.18
14.61
15.28
16.39
17.93
19.67
21.28
22.41
22.84
22.49
21.48
19.98
18.18
16.25
14.29
12.34
10.40
8.43
6.42
4.42
2.50
0.76
-0.80
-2.28
-3.86
-5.77
-8.17
-11.14
-14.69
-18.75
-23.20
-27.76
-31.96
-35.17
-36.74
-36.21
-33.52
-29.07
-23.53
-17.63
-11.98
-6.89
-2.48
1.28
4.42
7.04
9.18
10.92
12.31
13.42
14.33
15.15
16.01
16.98
18.01
18.95
19.58
19.72
19.37
18.66
17.78
16.83
15.78
14.46
12.67
10.36
7.64
4.82
2.25
0.13
-1.59
-3.18
-5.05
-7.62
-11.18
-15.77
-21.21
-27.02
-32.42
-36.54
-38.53
-37.89
-34.58
-29.10
-22.36
-15.37
-8.94
-3.54
0.74
4.10
6.82
9.19
11.42
13.58
15.63
17.49
19.09
20.44
21.70
23.03
24.51
26.09
27.60
28.87
29.76
30.30
30.53
30.47
30.10
29.27
27.92
26.07
23.87
21.58
19.42
17.50
15.81
14.30
12.82
11.27
9.53
7.54
5.27
2.84
0.41
-1.82
-3.72
-5.37
-6.97
-8.84
-11.19
-14.00
-17.02
-19.87
-22.24
-24.05
-25.50
-26.96
-28.85
-31.45
-34.91
-39.16
-43.93
-48.73
-52.81
-55.32
-55.47
-52.80
-47.46
-40.16
-32.00
-24.16
-17.47
-12.26
-8.33
-5.16
-2.14
1.16
4.89
8.92
12.91
16.49
19.40
21.59
23.17
24.37
25.41
26.43
27.46
28.44
29.34
30.17
30.95
31.72
32.44
32.96
33.09
32.68
31.64
30.05
28.12
26.10
24.19
22.50
20.98
19.50
17.97
16.29
14.47
12.56
10.62
8.68
6.72
4.77
2.83
0.98
-0.77
-2.46
-4.24
-6.30
-8.78
-11.68
-14.78
-17.80
-20.45
-22.68
-24.59
-26.52
-28.79
-31.67
-35.26
-39.44
-43.82
-47.75
-50.43
-51.02
-48.96
-44.23
-37.40
-29.59
-21.99
-15.58
-10.73
-7.22
-4.42
-1.59
1.79
5.85
10.39
14.95
19.05
22.36
24.79
26.43
27.50
28.19
28.61
28.81
28.82
28.71
28.67
28.82
29.18
29.59
29.75
29.38
28.34
26.74
24.85
22.97
21.35
20.00
18.84
17.69
16.43
15.06
13.61
12.15
10.65
9.03
7.20
5.15
3.00
0.97
-0.72
-2.03
-3.06
-4.12
-5.46
-7.22
-9.31
-11.49
-13.51
-15.26
-16.85
-18.51
-20.49
-23.00
-26.17
-30.01
-34.46
-39.23
-43.76
-47.26
-48.84
-47.82
-44.01
-37.82
-30.20
-22.33
-15.27
-9.67
-5.67
-2.98
-1.07
0.58
2.38
4.53
7.05
9.81
12.61
15.25
17.55
19.38
20.70
21.57
22.11
22.52
22.96
23.60
24.42
25.36
26.20
26.70
26.68
26.04
24.84
23.29
21.61
20.03
18.67
17.55
16.65
15.92
15.29
14.68
13.96
12.99
11.69
10.07
8.25
6.36
4.51
2.68
0.81
-1.23
-3.49
-5.88
-8.27
-10.50
-12.48
-14.27
-16.02
-17.96
-20.28
-23.11
-26.42
-30.04
-33.63
-36.68
-38.60
-38.86
-37.11
-33.32
-27.87
-21.41
-14.80
-8.82
-4.03
-0.68
1.31
2.26
2.63
2.90
3.43
4.39
5.74
7.26
8.67
9.77
10.41
10.64
10.57
10.41
10.32
10.47
10.85
11.31
11.57
11.32
10.33
8.63
6.52
4.42
2.69
1.46
0.51
-0.60
-2.35
-4.98
-8.39
-12.15
-15.69
-18.56
-20.58
-22.01
-23.34
-25.23
-28.29
-33.02
-39.65
-47.83
-56.39
-63.33
-66.27
-63.35
-54.19
-40.18
-24.00
-8.51
4.45
14.59
22.67
29.60
35.59
40.03
42.14
41.78
39.94
38.40
38.84
42.03
47.44
53.61
58.79
61.74
62.07
60.13
56.69
52.43
47.72
42.55
36.75
30.18
22.91
15.31
7.85
1.07
-4.63
-9.07
-12.32
-14.68
-16.66
-18.80
-21.44
-24.53
-27.56
-29.63
-29.81
-27.35
-21.95
-13.78
-3.31
8.72
21.49
34.13
45.75
55.59
63.19
68.55
72.01
74.13
75.28
75.44
74.20
70.96
65.27
57.16
47.08
35.84
24.23
12.81
1.76
-8.96
-19.42
-29.57
-39.10
-47.48
-54.11
-58.46
-60.17
-59.08
-55.29
-49.07
-40.95
-31.65
-22.11
-13.30
-6.07
-0.84
2.43
4.26
5.47
6.83
8.87
11.73
15.13
18.43
20.75
21.12
18.76
13.28
4.85
-5.78
-17.62
-29.69
-41.25
-51.87
-61.24
-69.22
-75.75
-81.12
-85.96
-91.23
-97.78
-106.02
-115.62
-125.62
-134.79
-142.19
-147.56
-151.45
-155.12
-159.84
-166.23
-173.60
-179.69
-181.06
-174.04
-155.80
-125.24
-83.16
-32.11
24.24
81.62
135.69
182.63
219.69
245.70
261.12
267.56
266.97
260.92
250.20
235.29
216.86
196.27
175.42
156.18
139.60
125.59
113.24
101.47
89.79
78.56
68.86
61.83
57.96
56.80
57.07
57.23
56.14
53.47
49.71
45.68
41.98
38.69
35.35
31.41
26.61
21.22
15.90
11.39
8.13
6.05
4.65
3.25
1.33
-1.24
-4.15
-6.81
-8.74
-9.89
-10.93
-13.08
-17.55
-24.97
-34.96
-46.26
-57.35
-67.15
-75.36
-82.29
-88.44
-94.08
-99.30
-104.24
-109.29
-115.03
-121.74
-129.06
-135.80
-140.42
-141.60
-138.88
-132.88
-125.09
-117.32
-111.09
-107.21
-105.56
-105.19
-104.79
-103.14
-99.58
-94.14
-87.33
-79.76
-71.83
-63.59
-54.80
-45.16
-34.46
-22.75
-10.41
1.86
13.19
22.69
29.90
34.97
38.64
41.85
45.23
48.66
51.41
52.56
51.55
48.55
44.27
39.62
35.24
31.44
28.33
26.08
24.86
24.57
24.52
23.47
20.12
13.91
5.58
-3.11
-10.10
-14.15
-15.42
-15.34
-15.65
-17.32
-19.83
-21.34
-19.59
-13.18
-2.42
10.53
22.41
29.96
31.12
25.63
15.00
1.95
-10.39
-19.30
-23.07
-21.37
-15.53
-8.39
-3.70
-4.94
-13.76
-29.10
-47.02
-62.02
-69.10
-65.95
-54.15
-38.68
-25.95
-21.14
-25.88
-37.59
-50.43
-57.62
-53.90
-37.22
-8.98
26.85
65.35
102.05
133.84
159.07
177.21
188.37
192.75
190.49
181.42
165.14
141.12
109.16
70.03
26.04
-18.67
-58.96
-89.96
-108.67
-114.93
-111.29
-101.87
-90.75
-80.62
-72.57
-66.55
-62.18
-59.28
-57.83
-57.53
-57.69
-57.50
-56.59
-55.46
-55.36
-57.69
-63.38
-72.36
-83.52
-95.01
-104.47
-109.35
-107.29
-96.72
-77.47
-51.26
-21.44
8.01
33.70
53.91
68.83
79.94
88.92
96.81
103.62
108.79
111.80
112.72
112.28
111.58
111.66
113.13
116.07
120.09
124.59
128.92
132.56
135.27
137.17
138.79
141.13
145.41
152.74
163.56
177.33
192.32
205.77
214.41
215.00
205.09
183.63
151.48
111.46
67.78
25.12
-12.60
-43.10
-65.96
-82.21
-93.45
-101.16
-106.34
-109.56
-111.37
-112.31
-112.90
-113.41
-113.78
-113.72
-112.94
-111.23
-108.60
-105.29
-101.59
-97.92
-94.66
-91.91
-89.48
-86.79
-83.16
-78.14
-71.90
-65.12
-58.82
-53.81
-50.45
-48.46
-47.22
-46.08
-44.60
-42.67
-40.41
-38.02
-35.70
-33.51
-31.33
-28.96
-26.25
-23.39
-21.09
-20.51
-22.83
-28.68
-37.66
-48.35
-58.76
-67.16
-72.71
-75.56
-76.45
-76.06
-74.72
-72.49
-69.74
-67.48
-67.24
-70.31
-76.82
-85.39
-93.46
-98.37
-98.53
-94.09
-86.66
-78.45
-71.25
-65.81
-61.83
-58.52
-55.21
-51.65
-48.06
-44.83
-42.17
-40.05
-38.13
-36.09
-33.74
-31.31
-29.23
-28.14
-28.52
-30.57
-34.06
-38.38
-42.67
-45.98
-47.41
-46.32
-42.40
-35.72
-26.78
-16.43
-5.66
4.51
13.38
20.60
26.21
30.53
33.93
36.71
38.97
40.75
42.05
42.97
43.76
44.63
45.81
47.30
48.98
50.66
52.20
53.59
54.89
56.14
57.27
58.07
58.26
57.66
56.24
54.19
51.80
49.38
47.12
45.03
42.98
40.74
38.03
34.69
30.65
26.06
21.18
16.36
11.84
7.70
3.79
-0.27
-4.83
-10.24
-16.57
-23.64
-30.90
-37.53
-42.50
-44.85
-43.98
-39.84
-33.06
-24.74
-16.13
-8.28
-1.76
3.35
7.28
10.35
12.79
14.66
15.98
16.79
17.31
17.83
18.67
19.98
21.66
23.41
24.82
25.58
25.58
24.90
23.76
22.35
20.75
18.95
16.85
14.41
11.63
8.56
5.31
1.95
-1.42
-4.74
-8.01
-11.21
-14.43
-17.76
-21.28
-25.08
-29.15
-33.46
-37.84
-41.99
-45.43
-47.61
-47.89
-45.84
-41.33
-34.58
-26.18
-16.93
-7.65
0.94
8.39
14.52
19.41
23.30
26.52
29.34
31.90
34.13
35.94
37.17
37.83
37.98
37.78
37.36
36.81
36.15
35.38
34.54
33.63
32.63
31.42
29.85
27.82
25.37
22.70
20.12
17.92
16.19
14.79
13.39
11.64
9.38
6.70
3.89
1.36
-0.68
-2.28
-3.86
-6.03
-9.42
-14.34
-20.66
-27.67
-34.25
-39.07
-40.98
-39.33
-34.21
-26.45
-17.43
-8.71
-1.57
3.32
5.98
7.04
7.43
8.01
9.27
11.22
13.55
15.82
17.79
19.43
20.93
22.44
24.01
25.52
26.83
27.92
28.95
30.23
32.07
34.58
37.60
40.76
43.60
45.78
47.19
47.96
48.41
48.80
49.24
49.63
49.74
49.32
48.27
46.58
44.34
41.58
38.27
34.32
29.75
24.69
19.47
14.39
9.66
5.21
0.69
-4.37
-10.30
-17.02
-23.86
-29.61
-32.88
-32.62
-28.52
-21.26
-12.25
-3.16
4.68
10.59
14.68
17.48
19.60
21.45
23.11
24.49
25.54
26.31
27.00
27.76
28.60
29.39
29.90
29.98
29.57
28.76
27.74
26.74
25.90
25.25
24.74
24.15
23.28
21.94
20.06
17.76
15.28
12.89
10.77
8.89
7.07
4.98
2.40
-0.72
-4.21
-7.76
-10.96
-13.51
-15.32
-16.57
-17.66
-19.12
-21.43
-24.87
-29.30
-34.17
-38.55
-41.36
-41.73
-39.27
-34.24
-27.38
-19.72
-12.20
-5.50
0.09
4.55
8.02
10.65
12.58
13.90
14.69
15.03
15.05
14.89
14.75
14.78
15.06
15.60
16.29
16.99
17.58
18.01
18.28
18.37
18.20
17.65
16.50
14.61
11.99
8.81
5.43
2.30
-0.26
-2.15
-3.61
-5.14
-7.37
-10.84
-15.74
-21.82
-28.37
-34.41
-38.88
-40.98
-40.30
-37.00
-31.73
-25.42
-19.05
-13.37
-8.73
-5.10
-2.20
0.29
2.53
4.51
6.08
7.14
7.79
8.30
9.03
10.26
12.06
14.26
16.53
18.57
20.18
21.36
22.19
22.79
23.18
23.27
22.90
21.91
20.17
17.74
14.79
11.60
8.49
5.68
3.22
0.98
-1.33
-4.05
-7.50
-11.85
-17.11
-23.00
-28.97
-34.25
-37.94
-39.31
-38.00
-34.20
-28.58
-22.10
-15.68
-9.94
-5.13
-1.09
2.52
6.04
9.69
13.47
17.21
20.65
23.55
25.80
27.47
28.72
29.76
30.75
31.72
32.68
33.63
34.62
35.72
36.97
38.25
39.29
39.82
39.65
38.76
37.37
35.83
34.45
33.38
32.49
31.49
30.02
27.89
25.17
22.10
18.98
15.99
13.06
9.99
6.49
2.45
-1.99
-6.54
-10.81
-14.54
-17.69
-20.44
-23.09
-25.94
-29.24
-33.09
-37.41
-41.90
-45.99
-48.92
-49.89
-48.36
-44.33
-38.43
-31.79
-25.68
-21.04
-18.19
-16.77
-16.00
-14.99
-13.08
-9.98
-5.73
-0.64
4.89
10.44
15.65
20.30
24.27
27.61
30.48
33.07
35.56
38.07
40.56
42.90
44.87
46.20
46.71
46.32
45.17
43.50
41.64
39.87
38.33
36.99
35.67
34.21
32.57
30.84
29.26
28.02
27.23
26.79
26.48
26.06
25.39
24.48
23.51
22.68
22.17
22.07
22.36
22.98
23.78
24.63
25.33
25.72
25.72
25.57
25.82
27.36
31.16
37.85
47.48
59.39
72.50
85.69
98.22
109.79
120.42
130.18
139.12
147.25
154.50
160.74
165.53
168.12
167.59
162.98
153.50
138.47
117.41
90.14
57.15
20.01
-18.44
-54.40
-83.92
-103.82
-112.52
-110.14
-98.27
-79.32
-56.04
-31.23
-7.59
12.39
26.69
33.97
33.95
27.46
16.29
2.75
-11.01
-23.60
-34.68
-44.69
-54.29
-63.77
-72.90
-81.10
-87.97
-93.54
-98.23
-102.41
-105.94
-108.16
-108.14
-105.36
-100.12
-93.57
-87.19
-82.14
-78.82
-76.74
-75.02
-72.84
-69.87
-66.39
-63.01
-60.35
-58.75
-58.13
-58.10
-58.16
-57.87
-57.14
-56.16
-55.28
-54.80
-54.75
-54.81
-54.51
-53.52
-51.82
-49.73
-47.77
-46.29
-45.41
-44.96
-44.70
-44.48
-44.37
-44.51
-45.02
-45.83
-46.72
-47.41
-47.78
-47.90
-48.02
-48.46
-49.45
-51.09
-53.36
-56.19
-59.50
-63.22
-67.18
-70.99
-74.09
-75.78
-75.54
-73.24
-69.28
-64.48
-59.73
-55.70
-52.54
-49.88
-47.04
-43.44
-38.90
-33.70
-28.51
-24.06
-20.90
-19.14
-18.54
-18.55
-18.49
-17.68
-15.57
-11.85
-6.55
-0.08
6.86
13.43
18.90
22.82
25.12
26.06
26.05
25.51
24.67
23.63
22.37
20.92
19.40
17.98
16.86
16.16
15.88
15.88
16.03
16.25
16.58
17.15
18.02
19.12
20.27
21.22
21.78
21.81
21.27
20.14
18.52
16.55
14.58
13.00
12.18
12.28
13.20
14.68
16.39
18.21
20.10
22.08
24.00
25.59
26.50
26.53
25.75
24.52
23.32
22.55
22.39
22.73
23.30
23.78
23.93
23.62
22.90
21.88
20.71
19.49
18.27
17.01
15.68
14.29
12.92
11.65
10.50
9.38
8.09
6.41
4.29
1.80
-0.86
-3.42
-5.77
-7.96
-10.23
-12.88
-16.18
-20.22
-24.90
-29.89
-34.71
-38.75
-41.37
-42.05
-40.48
-36.69
-31.08
-24.41
-17.60
-11.50
-6.64
-3.07
-0.43
1.82
4.18
6.89
9.90
12.99
15.94
18.65
21.10
23.30
25.19
26.62
27.46
27.72
27.56
27.26
27.01
26.79
26.37
25.41
23.59
20.87
17.50
13.95
10.74
8.21
6.38
4.95
3.51
1.69
-0.62
-3.30
-6.02
-8.47
-10.49
-12.13
-13.73
-15.71
-18.47
-22.16
-26.59
-31.14
-34.88
-36.86
-36.36
-33.14
-27.56
-20.39
-12.66
-5.25
1.22
6.52
10.67
13.85
16.17
17.70
18.47
18.58
18.27
17.90
17.86
18.45
19.72
21.52
23.47
25.17
26.29
26.74
26.62
26.17
25.65
25.16
24.64
23.88
22.69
21.01
19.01
16.96
15.21
13.92
13.06
12.35
11.36
9.65
6.93
3.14
-1.53
-6.58
-11.38
-15.22
-17.62
-18.48
-18.19
-17.62
-17.88
-19.95
-24.35
-30.78
-38.22
-45.08
-49.76
-51.10
-48.80
-43.42
-36.15
-28.40
-21.32
-15.55
-11.17
-7.86
-5.19
-2.72
-0.18
2.58
5.64
8.99
12.54
16.11
19.45
22.33
24.62
26.32
27.61
28.74
29.98
31.45
33.06
34.53
35.46
35.49
34.48
32.58
30.18
27.78
25.77
24.27
23.17
22.15
20.89
19.26
17.28
15.17
13.11
11.20
9.34
7.33
4.94
2.07
-1.26
-4.84
-8.40
-11.69
-14.58
-17.09
-19.41
-21.84
-24.76
-28.52
-33.36
-39.21
-45.54
-51.36
-55.40
-56.48
-53.97
-48.02
-39.57
-30.09
-21.05
-13.47
-7.71
-3.51
-0.31
2.49
5.25
8.06
10.84
13.52
16.06
18.47
20.77
22.85
24.55
25.69
26.25
26.41
26.57
27.05
28.06
29.49
31.03
32.30
33.03
33.15
32.78
32.11
31.29
30.39
29.32
27.97
26.21
24.06
21.60
19.03
16.56
14.35
12.43
10.69
8.95
6.99
4.67
1.94
-1.08
-4.21
-7.24
-10.01
-12.56
-15.13
-18.12
-22.01
-27.12
-33.38
-40.22
-46.55
-51.03
-52.43
-50.04
-44.02
-35.30
-25.38
-15.82
-7.79
-1.82
2.26
5.06
7.28
9.47
11.86
14.45
17.13
19.79
22.33
24.66
26.65
28.13
29.00
29.30
29.27
29.19
29.30
29.64
30.02
30.15
29.78
28.82
27.39
25.74
24.14
22.75
21.60
20.60
19.54
18.19
16.40
14.11
11.42
8.52
5.66
3.02
0.62
-1.59
-3.77
-6.12
-8.74
-11.65
-14.79
-17.93
-20.84
-23.21
-24.92
-26.03
-26.91
-28.11
-30.21
-33.45
-37.52
-41.51
-44.14
-44.25
-41.18
-35.15
-27.08
-18.31
-10.17
-3.54
1.23
4.30
6.12
7.23
8.10
9.12
10.49
12.30
14.52
17.04
19.64
22.10
24.21
25.79
26.71
26.98
26.69
26.02
25.16
24.23
23.21
21.96
20.30
18.10
15.40
12.42
9.44
6.74
4.49
2.68
1.14
-0.38
-2.18
-4.45
-7.22
-10.32
-13.41
-16.15
-18.32
-19.96
-21.40
-23.14
-25.68
-29.30
-33.93
-39.07
-43.84
-47.19
-48.17
-46.18
-41.23
-33.93
-25.32
-16.60
-8.75
-2.43
2.16
5.13
6.82
7.61
7.92
8.10
8.43
9.09
10.16
11.64
13.48
15.56
17.72
19.77
21.49
22.74
23.43
23.55
23.15
22.28
21.03
19.43
17.57
15.54
13.42
11.29
9.16
7.01
4.81
2.51
0.13
-2.29
-4.71
-7.11
-9.52
-12.05
-14.86
-18.19
-22.24
-27.11
-32.62
-38.26
-43.08
-45.94
-45.87
-42.43
-35.97
-27.61
-18.82
-10.94
-4.71
-0.18
3.07
5.62
7.91
10.02
11.90
13.41
14.56
15.47
16.35
17.34
18.48
19.72
20.96
22.09
23.06
23.84
24.43
24.75
24.72
24.24
23.27
21.85
20.15
18.36
16.62
14.97
13.35
11.73
10.09
8.51
7.05
5.69
4.30
2.70
0.74
-1.60
-4.18
-6.80
-9.27
-11.52
-13.61
-15.73
-18.12
-21.06
-24.80
-29.47
-34.96
-40.81
-46.14
-49.83
-50.84
-48.56
-43.10
-35.33
-26.61
-18.35
-11.59
-6.66
-3.32
-1.00
0.93
2.82
4.81
6.81
8.69
10.38
11.88
13.22
14.45
15.64
16.83
18.09
19.41
20.77
22.03
23.06
23.71
23.94
23.77
23.27
22.56
21.78
21.05
20.46
20.10
19.93
19.87
19.75
19.41
18.76
17.84
16.72
15.51
14.30
13.09
11.93
10.85
9.85
8.83
7.48
5.37
2.09
-2.52
-8.29
-14.76
-21.41
-27.91
-34.27
-40.61
-46.91
-52.67
-56.86
-58.33
-56.18
-50.16
-40.62
-28.19
-13.56
2.47
18.67
33.21
43.90
48.96
47.83
41.65
32.95
24.60
18.72
16.05
16.06
17.59
19.73
22.06
24.65
27.56
30.62
33.33
35.17
35.85
35.43
34.34
33.12
32.23
31.90
32.06
32.44
32.69
32.55
31.93
30.98
29.98
29.30
29.26
30.04
31.58
33.62
35.83
37.96
40.04
42.29
45.04
48.41
52.24
56.07
59.39
61.83
63.35
64.08
64.16
63.42
61.50
58.03
53.01
47.00
40.87
35.28
30.00
23.74
14.59
0.99
-17.22
-38.47
-59.92
-78.71
-93.03
-102.64
-108.41
-111.42
-112.21
-110.69
-106.68
-100.45
-92.98
-85.50
-78.67
-72.10
-64.50
-54.48
-41.62
-26.94
-12.66
-1.27
5.66
8.08
7.36
5.61
4.78
6.16
10.26
16.99
25.85
35.89
45.62
53.02
56.00
52.97
43.47
28.30
9.11
-12.19
-34.09
-55.74
-76.85
-97.31
-116.83
-134.70
-149.77
-160.70
-166.38
-166.37
-161.13
-152.00
-140.76
-129.09
-118.12
-108.22
-99.17
-90.52
-81.85
-72.97
-63.94
-54.90
-46.06
-37.61
-29.76
-22.69
-16.48
-11.08
-6.25
-1.55
3.55
9.56
16.71
24.85
33.39
41.42
48.00
52.48
54.71
55.06
54.20
52.78
51.18
49.40
47.24
44.50
41.13
37.31
33.33
29.37
25.46
21.41
16.88
11.66
5.75
-0.55
-6.73
-12.28
-16.92
-20.71
-24.07
-27.65
-32.12
-37.84
-44.78
-52.39
-59.66
-65.28
-67.96
-66.77
-61.42
-52.39
-40.88
-28.52
-16.89
-7.14
0.24
5.47
9.24
12.38
15.54
18.96
22.52
25.90
28.75
30.88
32.37
33.39
34.10
34.56
34.71
34.51
33.99
33.31
32.64
32.04
31.35
30.26
28.47
25.91
22.82
19.67
16.97
14.98
13.65
12.63
11.42
9.71
7.41
4.74
2.02
-0.50
-2.81
-5.21
-8.22
-12.38
-18.03
-25.06
-32.80
-40.03
-45.27
-47.20
-45.04
-38.93
-29.86
-19.38
-9.11
-0.20
6.86
12.23
16.45
20.01
23.22
26.10
28.54
30.49
31.97
33.17
34.33
35.62
37.06
38.55
39.86
40.79
41.22
41.16
40.73
40.08
39.28
38.26
36.86
34.87
32.22
29.05
25.71
22.62
20.12
18.29
16.93
15.65
14.02
11.75
8.82
5.43
1.93
-1.35
-4.27
-6.94
-9.66
-12.84
-16.84
-21.94
-28.17
-35.26
-42.54
-48.98
-53.31
-54.47
-51.88
-45.75
-37.03
-27.10
-17.30
-8.48
-0.92
5.54
11.23
16.38
21.09
25.33
29.11
32.50
35.61
38.48
41.05
43.22
44.89
46.10
46.95
47.65
48.33
49.06
49.80
50.39
50.66
50.42
49.57
48.07
46.00
43.54
40.93
38.40
36.13
34.17
32.38
30.49
28.22
25.39
22.07
18.59
15.38
12.78
10.86
9.35
7.79
5.71
2.85
-0.75
-4.85
-9.09
-13.15
-16.84
-20.14
-23.18
-26.25
-29.77
-34.17
-39.65
-45.90
-52.00
-56.50
-57.95
-55.44
-49.04
-39.80
-29.40
-19.54
-11.32
-5.03
-0.23
3.82
7.79
11.97
16.28
20.38
23.85
26.39
27.91
28.57
28.69
28.63
28.61
28.67
28.70
28.59
28.30
27.93
27.64
27.46
27.27
26.82
25.86
24.33
22.36
20.26
18.31
16.63
15.16
13.69
12.02
10.10
7.95
5.65
3.26
0.73
-2.05
-5.17
-8.65
-12.39
-16.14
-19.62
-22.65
-25.15
-27.30
-29.43
-31.97
-35.24
-39.27
-43.63
-47.47
-49.69
-49.33
-45.91
-39.67
-31.53
-22.73
-14.43
-7.38
-1.84
2.36
5.50
7.88
9.71
11.18
12.46
13.73
15.06
16.40
17.64
18.67
19.47
20.11
20.69
21.29
21.87
22.39
22.79
23.05
23.15
23.05
22.71
22.02
20.99
19.67
18.13
16.54
14.99
13.59
12.38
11.38
10.52
9.68
8.63
7.16
5.14
2.58
-0.33
-3.30
-6.05
-8.41
-10.38
-12.11
-13.92
-16.19
-19.37
-23.77
-29.39
-35.76
-41.84
-46.24
-47.66
-45.41
-39.74
-31.86
-23.43
-15.96
-10.24
-6.19
-3.12
-0.25
2.86
6.20
9.41
12.16
14.30
15.91
17.13
18.09
18.75
19.02
18.89
18.43
17.87
17.45
17.35
17.58
17.99
18.34
18.35
17.81
16.72
15.21
13.52
11.97
10.74
9.89
9.31
8.83
8.29
7.52
6.46
5.09
3.44
1.58
-0.38
-2.29
-4.04
-5.63
-7.08
-8.49
-9.95
-11.44
-12.91
-14.33
-15.81
-17.58
-20.01
-23.47
-28.08
-33.60
-39.38
-44.45
-47.79
-48.55
-46.38
-41.49
-34.63
-26.86
-19.33
-12.92
-8.06
-4.70
-2.36
-0.48
1.50
3.88
6.75
10.00
13.47
17.01
20.42
23.52
26.13
28.09
29.39
30.14
30.57
30.91
31.30
31.67
31.78
31.33
30.15
28.23
25.77
23.14
20.68
18.62
16.97
15.58
14.18
12.51
10.41
7.93
5.28
2.76
0.60
-1.19
-2.76
-4.43
-6.46
-8.94
-11.72
-14.51
-17.06
-19.30
-21.39
-23.67
-26.54
-30.28
-34.93
-40.18
-45.37
-49.59
-51.84
-51.39
-47.95
-41.85
-33.97
-25.47
-17.44
-10.65
-5.38
-1.50
1.39
3.69
5.72
7.60
9.30
10.71
11.77
12.50
13.05
13.63
14.42
15.48
16.73
17.97
18.98
19.58
19.73
19.42
18.76
17.83
16.69
15.42
14.10
12.80
11.55
10.34
9.14
7.86
6.50
5.05
3.55
1.99
0.35
-1.41
-3.33
-5.36
-7.39
-9.30
-11.01
-12.48
-13.71
-14.82
-16.02
-17.55
-19.75
-22.79
-26.58
-30.59
-33.92
-35.49
-34.47
-30.56
-24.22
-16.56
-8.99
-2.77
1.30
3.14
3.19
2.27
1.24
0.73
1.11
2.39
4.35
6.65
8.93
10.93
12.55
13.81
14.87
15.85
16.84
17.78
18.56
18.97
18.89
18.26
17.19
15.81
14.35
12.98
11.85
11.05
10.58
10.36
10.17
9.78
8.95
7.60
5.84
3.92
2.15
0.71
-0.47
-1.68
-3.30
-5.53
-8.32
-11.33
-14.07
-16.15
-17.50
-18.38
-19.31
-20.90
-23.64
-27.76
-33.09
-39.08
-44.80
-49.08
-50.90
-49.59
-45.22
-38.49
-30.60
-22.77
-15.94
-10.51
-6.42
-3.34
-0.81
1.51
3.90
6.45
9.20
12.05
14.80
17.24
19.26
20.85
22.13
23.27
24.34
25.35
26.21
26.82
27.17
27.31
27.36
27.34
27.22
26.86
26.13
25.00
23.54
21.95
20.43
19.06
17.80
16.46
14.90
13.02
10.86
8.56
6.26
4.06
1.97
-0.02
-1.95
-3.81
-5.57
-7.20
-8.72
-10.18
-11.68
-13.29
-15.06
-17.04
-19.24
-21.77
-24.76
-28.41
-32.83
-37.87
-43.02
-47.38
-49.89
-49.68
-46.48
-40.76
-33.62
-26.42
-20.27
-15.70
-12.57
-10.31
-8.27
-6.02
-3.41
-0.57
2.32
5.13
7.80
10.33
12.71
14.85
16.67
18.12
19.22
20.13
21.03
22.10
23.39
24.77
25.98
26.71
26.74
26.00
24.71
23.19
21.77
20.66
19.81
19.00
17.94
16.53
14.82
13.06
11.52
10.28
9.27
8.18
6.72
4.70
2.09
-0.96
-4.22
-7.42
-10.35
-12.90
-15.10
-17.21
-19.62
-22.74
-26.89
-32.05
-37.78
-43.25
-47.36
-49.10
-47.83
-43.56
-36.97
-29.21
-21.54
-14.88
-9.64
-5.65
-2.46
0.42
3.28
6.20
9.08
11.80
14.25
16.34
18.03
19.30
20.28
21.12
22.04
23.19
24.58
26.07
27.45
28.53
29.12
29.12
28.47
27.16
25.31
23.13
20.94
19.03
17.54
16.41
15.34
14.00
12.15
9.75
7.00
4.21
1.66
-0.54
-2.52
-4.56
-6.96
-9.89
-13.28
-16.88
-20.34
-23.37
-25.87
-27.98
-30.08
-32.68
-36.25
-40.97
-46.53
-52.13
-56.52
-58.43
-56.99
-52.08
-44.42
-35.35
-26.39
-18.76
-13.04
-9.24
-6.86
-5.24
-3.72
-1.83
0.60
3.47
6.41
8.98
10.91
12.18
13.12
14.19
15.74
17.78
20.05
22.13
23.68
24.64
25.14
25.40
25.53
25.50
25.20
24.56
23.64
22.70
22.02
21.83
22.14
22.73
23.17
23.07
22.20
20.62
18.64
16.64
14.85
13.25
11.57
9.44
6.61
3.06
-0.99
-5.19
-9.23
-12.93
-16.26
-19.34
-22.41
-25.81
-29.91
-34.96
-40.95
-47.44
-53.48
-57.82
-59.26
-57.13
-51.53
-43.41
-34.22
-25.44
-18.13
-12.59
-8.44
-4.97
-1.53
2.24
6.27
10.31
14.12
17.58
20.75
23.70
26.42
28.78
30.61
31.82
32.54
33.03
33.57
34.32
35.22
36.02
36.42
36.20
35.34
34.02
32.49
31.04
29.84
28.91
28.18
27.47
26.59
25.39
23.76
21.67
19.24
16.60
13.95
11.40
9.00
6.67
4.23
1.49
-1.69
-5.33
-9.24
-13.15
-16.73
-19.80
-22.39
-24.81
-27.56
-31.13
-35.83
-41.54
-47.68
-53.24
-57.05
-58.12
-55.94
-50.66
-43.04
-34.22
-25.37
-17.38
-10.70
-5.35
-1.10
2.38
5.41
8.23
10.94
13.56
16.04
18.28
20.19
21.79
23.18
24.52
25.91
27.37
28.83
30.15
31.24
32.06
32.62
32.92
32.90
32.46
31.54
30.17
28.50
26.74
25.07
23.49
21.86
19.96
17.58
14.72
11.53
8.27
5.13
2.16
-0.74
-3.76
-7.00
-10.43
-13.85
-17.01
-19.82
-22.35
-24.97
-28.10
-32.11
-37.11
-42.73
-48.21
-52.46
-54.37
-53.17
-48.65
-41.32
-32.27
-22.84
-14.29
-7.41
-2.42
1.04
3.62
5.96
8.44
11.08
13.63
15.78
17.34
18.41
19.25
20.20
21.53
23.28
25.38
27.61
29.73
31.40
32.34
32.27
31.12
29.10
26.62
24.21
22.18
20.55
19.10
17.45
15.44
13.12
10.73
8.51
6.50
4.52
2.29
-0.36
-3.45
-6.79
-10.15
-13.33
-16.28
-18.99
-21.56
-24.14
-26.97
-30.36
-34.63
-39.90
-45.87
-51.75
-56.34
-58.37
-56.95
-51.98
-44.19
-34.89
-25.54
-17.24
-10.47
-5.08
-0.54
3.68
7.88
12.06
16.04
19.59
22.56
24.94
26.84
28.34
29.52
30.38
30.93
31.23
31.41
31.62
31.98
32.46
32.88
32.99
32.56
31.51
29.93
28.03
26.03
24.08
22.29
20.71
19.34
18.14
17.00
15.73
14.17
12.25
10.10
7.96
6.07
4.57
3.34
2.06
0.36
-2.03
-5.14
-8.76
-12.52
-16.07
-19.25
-22.09
-24.86
-27.94
-31.67
-36.30
-41.89
-48.19
-54.62
-60.29
-64.08
-64.95
-62.29
-56.17
-47.45
-37.52
-27.86
-19.60
-13.16
-8.33
-4.47
-0.87
2.92
7.01
11.16
15.03
18.30
20.81
22.58
23.77
24.56
25.12
25.52
25.72
25.65
25.25
24.50
23.47
22.19
20.67
18.88
16.72
14.14
11.11
7.63
3.63
-0.91
-5.92
-10.99
-15.31
-17.79
-17.37
-13.50
-6.43
2.80
12.70
21.76
28.90
33.63
35.88
35.90
34.03
30.66
26.27
21.28
16.05
10.70
5.02
-1.37
-8.80
-17.23
-26.05
-34.11
-40.05
-42.72
-41.70
-37.40
-31.01
-24.02
-17.70
-12.75
-9.12
-6.37
-3.87
-1.26
1.54
4.33
6.86
8.98
10.65
11.98
13.00
13.75
14.16
14.17
13.82
13.22
12.57
11.99
11.54
11.06
10.30
8.97
6.88
4.03
0.62
-2.98
-6.42
-9.39
-11.85
-13.97
-16.13
-18.79
-22.27
-26.63
-31.61
-36.72
-41.39
-45.32
-48.54
-51.51
-54.92
-59.40
-65.40
-72.90
-81.50
-90.29
-97.94
-102.85
-103.51
-99.09
-89.81
-77.13
-63.37
-50.95
-41.60
-35.94
-33.50
-33.26
-34.22
-35.85
-38.04
-40.94
-44.65
-49.24
-54.81
-61.58
-69.76
-79.30
-89.52
-99.14
-106.57
-110.50
-110.53
-107.43
-102.95
-99.22
-97.91
-99.67
-103.93
-109.19
-113.71
-116.11
-115.80
-113.01
-108.55
-103.35
-98.04
-92.72
-86.95
-79.83
-70.26
-57.19
-39.86
-18.07
7.64
35.99
65.29
93.93
120.97
146.50
171.48
197.16
224.23
252.19
279.25
302.74
320.02
329.29
330.17
323.67
311.79
296.84
280.86
265.27
250.72
237.33
224.88
213.22
202.36
192.53
183.96
176.76
170.71
165.33
159.97
153.97
146.77
137.97
127.37
114.98
101.09
86.24
71.19
56.75
43.63
32.34
23.04
15.52
9.17
3.11
-3.56
-11.34
-20.11
-28.94
-36.48
-41.43
-43.12
-41.74
-38.14
-33.40
-28.31
-23.21
-18.02
-12.67
-7.29
-2.30
1.84
4.81
6.56
7.21
6.87
5.49
2.93
-0.84
-5.57
-10.65
-15.28
-18.80
-20.83
-21.52
-21.32
-20.85
-20.58
-20.66
-20.90
-20.88
-20.14
-18.52
-16.30
-14.24
-13.30
-14.30
-17.55
-22.66
-28.59
-33.88
-36.94
-36.28
-30.78
-19.96
-4.14
15.44
36.67
56.98
73.87
85.39
90.55
89.30
82.39
71.02
56.64
40.79
24.98
10.63
-1.16
-9.87
-15.62
-19.12
-21.44
-23.57
-26.03
-28.82
-31.45
-33.36
-34.18
-34.02
-33.32
-32.70
-32.55
-32.96
-33.66
-34.24
-34.38
-34.02
-33.24
-32.20
-30.97
-29.47
-27.62
-25.52
-23.53
-22.28
-22.47
-24.62
-28.77
-34.55
-41.16
-47.65
-53.14
-57.05
-59.16
-59.60
-58.76
-57.06
-54.83
-52.23
-49.33
-46.16
-42.90
-39.79
-37.07
-34.85
-33.04
-31.46
-29.99
-28.62
-27.47
-26.64
-26.11
-25.66
-25.01
-24.02
-22.82
-21.69
-21.02
-21.00
-21.56
-22.41
-23.24
-23.82
-24.03
-23.88
-23.33
-22.28
-20.67
-18.54
-16.16
-13.92
-12.21
-11.22
-10.80
-10.64
-10.34
-9.68
-8.66
-7.50
-6.40
-5.47
-4.67
-3.87
-3.03
-2.23
-1.66
-1.54
-1.99
-2.96
-4.32
-5.91
-7.54
-9.13
-10.62
-11.95
-13.14
-14.18
-15.15
-16.10
-17.11
-18.22
-19.46
-20.83
-22.32
-23.88
-25.46
-26.97
-28.39
-29.74
-31.10
-32.54
-34.08
-35.59
-36.87
-37.72
-38.03
-37.83
-37.26
-36.46
-35.56
-34.62
-33.66
-32.74
-31.92
-31.22
-30.60
-29.99
-29.38
-28.83
-28.59
-28.93
-30.04
-31.78
-33.66
-34.88
-34.62
-32.35
-28.01
-22.01
-14.99
-7.58
-0.17
7.16
14.43
21.63
28.54
34.78
39.96
43.81
46.30
47.55
47.70
46.85
45.11
42.64
39.74
36.80
34.06
31.42
28.39
24.29
18.62
11.36
3.03
-5.47
-13.25
-19.82
-25.19
-29.65
-33.44
-36.53
-38.55
-39.09
-38.01
-35.57
-32.34
-28.92
-25.57
-22.08
-18.04
-13.19
-7.77
-2.61
1.16
2.60
1.42
-1.90
-6.36
-10.81
-14.43
-16.89
-18.23
-18.69
-18.44
-17.50
-15.84
-13.48
-10.59
-7.50
-4.55
-1.93
0.33
2.39
4.42
6.55
8.77
10.95
12.89
14.44
15.49
16.09
16.35
16.41
16.37
16.19
15.77
15.03
13.93
12.61
11.31
10.25
9.53
9.01
8.40
7.40
5.87
3.87
1.60
-0.69
-2.87
-4.92
-6.88
-8.78
-10.59
-12.27
-13.81
-15.32
-16.91
-18.65
-20.41
-21.95
-22.89
-22.90
-21.82
-19.75
-16.94
-13.75
-10.53
-7.53
-4.89
-2.66
-0.77
0.89
2.43
3.93
5.37
6.68
7.76
8.53
9.03
9.34
9.63
10.05
10.71
11.58
12.55
13.41
13.92
13.94
13.45
12.65
11.77
11.04
10.52
10.08
9.52
8.68
7.56
6.29
5.07
3.98
2.94
1.79
0.36
-1.40
-3.33
-5.25
-6.93
-8.32
-9.51
-10.69
-12.04
-13.67
-15.52
-17.41
-19.11
-20.38
-21.02
-20.94
-20.16
-18.79
-17.03
-15.09
-13.14
-11.31
-9.64
-8.10
-6.57
-4.97
-3.17
-1.23
0.75
2.55
3.96
4.85
5.28
5.49
5.74
6.31
7.22
8.37
9.52
10.44
11.05
11.37
11.50
11.48
11.31
10.88
10.15
9.17
8.14
7.35
6.97
6.98
7.13
7.08
6.55
5.49
4.09
2.62
1.34
0.36
-0.33
-0.81
-1.16
-1.42
-1.63
-1.88
-2.32
-3.09
-4.33
-6.10
-8.38
-11.04
-13.83
-16.33
-18.07
-18.59
-17.64
-15.31
-11.96
-8.22
-4.67
-1.70
0.58
2.31
3.80
5.37
7.22
9.37
11.65
13.77
15.42
16.38
16.60
16.16
15.28
14.20
13.18
12.43
12.13
12.32
12.92
13.69
14.32
14.56
14.26
13.49
12.39
11.13
9.82
8.52
7.28
6.15
5.20
4.48
3.92
3.42
2.85
2.09
1.11
-0.14
-1.68
-3.52
-5.61
-7.74
-9.55
-10.63
-10.67
-9.60
-7.64
-5.26
-3.02
-1.42
-0.76
-1.07
-2.18
-3.76
-5.54
-7.28
-8.91
-10.43
-11.81
-13.07
-14.21
-15.32
-16.60
-18.26
-20.36
-22.70
-24.81
-26.12
-26.21
-24.99
-22.72
-19.81
-16.60
-13.14
-9.26
-4.72
0.50
6.16
11.74
16.70
20.68
23.65
25.83
27.52
28.93
30.07
30.81
30.98
30.52
29.51
28.17
26.68
25.19
23.70
22.11
20.29
18.14
15.66
12.91
10.00
7.01
4.02
1.03
-1.94
-4.82
-7.59
-10.19
-12.73
-15.37
-18.24
-21.35
-24.44
-27.10
-28.87
-29.41
-28.62
-26.70
-23.94
-20.68
-17.21
-13.76
-10.55
-7.76
-5.54
-3.88
-2.59
-1.47
-0.33
0.88
2.05
3.03
3.68
4.07
4.41
5.03
6.16
7.87
9.95
12.04
13.64
14.33
13.86
12.25
9.78
6.90
4.06
1.60
-0.29
-1.67
-2.66
-3.47
-4.29
-5.28
-6.56
-8.19
-10.11
-12.16
-14.12
-15.78
-17.04
-18.02
-19.03
-20.41
-22.43
-25.12
-28.30
-31.58
-34.54
-36.76
-38.05
-38.33
-37.70
-36.30
-34.33
-31.99
-29.48
-27.00
-24.69
-22.60
-20.65
-18.63
-16.29
-13.44
-10.10
-6.47
-2.82
0.60
3.72
6.63
9.44
12.25
14.94
17.30
19.08
20.11
20.38
20.00
19.13
17.90
16.33
14.48
12.42
10.30
8.32
6.62
5.18
3.84
2.43
0.85
-0.86
-2.51
-3.94
-5.09
-6.05
-6.97
-7.98
-9.17
-10.51
-11.93
-13.40
-14.92
-16.56
-18.34
-20.16
-21.79
-22.84
-22.96
-21.94
-19.89
-17.12
-14.06
-11.12
-8.47
-6.06
-3.71
-1.27
1.24
3.62
5.63
7.14
8.20
9.09
10.10
11.43
13.04
14.69
16.10
17.10
17.77
18.36
19.16
20.27
21.61
22.83
23.68
24.05
24.08
24.06
24.19
24.52
24.85
24.94
24.58
23.82
22.86
22.03
21.53
21.40
21.43
21.33
20.90
20.10
19.11
18.20
17.59
17.30
17.13
16.80
16.08
14.96
13.61
12.31
11.20
10.21
9.20
7.98
6.56
5.17
4.15
3.83
4.27
5.35
6.74
8.13
9.35
10.35
11.13
11.61
11.60
10.84
9.18
6.67
3.62
0.49
-2.29
-4.52
-6.22
-7.58
-8.78
-9.81
-10.50
-10.63
-10.10
-9.07
-7.89
-6.96
-6.45
-6.27
-6.10
-5.59
-4.66
-3.45
-2.28
-1.47
-1.10
-1.03
-1.00
-0.82
-0.49
-0.18
-0.10
-0.38
-0.93
-1.51
-1.85
-1.66
-0.90
0.38
2.01
3.75
5.35
6.55
7.03
6.53
4.88
2.14
-1.31
-4.89
-7.87
-9.60
-9.67
-8.00
-4.90
-0.90
3.35
7.27
10.43
12.61
13.75
13.90
13.23
11.95
10.34
8.69
7.28
6.23
5.52
5.02
4.56
4.06
3.50
2.96
2.50
2.14
1.84
1.59
1.34
1.11
0.86
0.54
0.10
-0.48
-1.16
-1.81
-2.30
-2.57
-2.61
-2.57
-2.61
-2.85
-3.35
-4.07
-4.91
-5.74
-6.47
-7.10
-7.69
-8.40
-9.40
-10.84
-12.75
-15.09
-17.68
-20.29
-22.64
-24.47
-25.58
-25.82
-25.15
-23.65
-21.51
-18.99
-16.38
-13.93
-11.79
-9.94
-8.22
-6.40
-4.31
-1.87
0.84
3.66
6.41
8.93
11.14
12.98
14.39
15.40
16.08
16.51
16.83
17.14
17.47
17.75
17.81
17.43
16.35
14.42
11.67
8.44
5.36
3.10
2.08
2.28
3.15
3.92
4.01
3.33
2.26
1.36
0.98
1.03
1.05
0.56
-0.66
-2.40
-4.19
-5.58
-6.40
-6.80
-7.13
-7.73
-8.79
-10.38
-12.48
-15.05
-17.94
-20.87
-23.43
-25.24
-26.08
-26.06
-25.49
-24.80
-24.26
-23.83
-23.09
-21.26
-17.39
-10.55
-0.25
13.19
28.40
43.07
54.52
60.49
59.97
53.52
42.91
30.54
18.60
8.55
1.05
-3.80
-6.24
-6.63
-5.42
-3.13
-0.40
2.18
4.20
5.52
6.24
6.64
7.03
7.58
8.29
8.98
9.42
9.39
8.84
7.88
6.74
5.62
4.66
3.88
3.15
2.36
1.40
0.20
-1.20
-2.76
-4.40
-6.02
-7.59
-9.14
-10.75
-12.49
-14.31
-16.00
-17.26
-17.74
-17.27
-15.88
-13.81
-11.44
-9.13
-7.10
-5.39
-3.93
-2.59
-1.29
-0.00
1.26
2.44
3.53
4.55
5.54
6.54
7.57
8.59
9.59
10.53
11.43
12.32
13.21
14.08
14.87
15.48
15.84
15.87
15.56
14.91
13.98
12.83
11.55
10.22
8.93
7.76
6.73
5.79
4.88
3.91
2.82
1.61
0.34
-0.89
-1.94
-2.77
-3.41
-4.01
-4.71
-5.60
-6.71
-7.96
-9.30
-10.73
-12.34
-14.22
-16.37
-18.59
-20.52
-21.74
-21.92
-21.03
-19.27
-17.07
-14.87
-12.96
-11.36
-9.94
-8.49
-6.88
-5.17
-3.55
-2.25
-1.37
-0.80
-0.26
0.59
1.94
3.81
5.98
8.15
10.06
11.63
12.92
14.12
15.35
16.57
17.71
18.64
19.31
19.75
20.02
20.14
20.01
19.53
18.68
17.50
16.14
14.67
13.10
11.28
9.05
6.32
3.19
-0.12
-3.34
-6.23
-8.66
-10.59
-12.03
-13.04
-13.70
-14.15
-14.46
-14.69
-14.78
-14.55
-13.78
-12.28
-10.00
-7.06
-3.78
-0.53
2.32
4.51
6.00
6.84
7.26
7.49
7.72
8.10
8.60
9.10
9.37
9.18
8.49
7.38
6.12
4.99
4.23
3.87
3.85
3.99
4.21
4.43
4.66
4.91
5.18
5.46
5.72
5.98
6.28
6.65
7.10
7.55
7.87
7.88
7.52
6.77
5.75
4.61
3.48
2.35
1.15
-0.20
-1.71
-3.29
-4.80
-6.13
-7.35
-8.62
-10.15
-12.06
-14.31
-16.76
-19.19
-21.44
-23.38
-24.91
-25.88
-26.13
-25.49
-23.96
-21.74
-19.17
-16.69
-14.55
-12.77
-11.05
-8.97
-6.17
-2.55
1.58
5.70
9.23
11.84
13.55
14.69
15.69
16.89
18.37
19.97
21.49
22.75
23.73
24.48
25.04
25.38
25.40
25.04
24.34
23.46
22.71
22.36
22.54
23.23
24.20
25.13
25.71
25.71
25.05
23.75
21.87
19.53
16.80
13.84
10.76
7.68
4.56
1.18
-2.80
-7.67
-13.47
-19.91
-26.42
-32.36
-37.31
-41.17
-44.16
-46.62
-48.74
-50.41
-51.26
-50.80
-48.61
-44.57
-38.96
-32.45
-25.94
-20.29
-16.00
-13.04
-11.01
-9.35
-7.71
-6.06
-4.63
-3.55
-2.61
-1.30
0.91
4.17
8.03
11.52
13.63
13.81
12.20
9.55
6.72
4.29
2.38
1.02
0.51
1.63
5.14
11.03
17.79
22.59
22.18
14.25
-1.55
-23.63
-49.29
-75.99
-102.11
-126.98
-150.21
-171.07
-188.14
-199.75
-204.43
-201.41
-190.82
-173.64
-151.53
-126.43
-100.27
-74.72
-51.12
-30.57
-14.10
-2.60
3.42
4.19
0.83
-4.91
-11.17
-16.89
-22.08
-27.85
-35.71
-46.74
-60.84
-76.55
-91.41
-102.78
-108.87
-109.31
-105.33
-99.12
-92.83
-87.71
-83.89
-80.57
-76.63
-71.10
-63.28
-52.74
-39.16
-22.56
-3.47
16.94
37.14
55.73
71.87
85.54
97.32
107.92
117.78
126.83
134.63
140.59
144.18
145.08
143.21
138.80
132.36
124.74
116.97
109.91
104.03
98.95
93.49
85.75
73.74
56.09
32.69
4.82
-25.15
-54.51
-80.94
-102.84
-119.37
-130.16
-135.31
-135.46
-132.04
-127.18
-123.20
-121.70
-122.89
-125.54
-127.67
-127.65
-125.10
-120.95
-116.83
-113.86
-111.85
-109.15
-103.28
-91.97
-73.96
-49.19
-18.41
17.39
57.18
99.66
142.84
183.77
218.96
245.38
261.40
267.35
265.29
258.16
248.92
239.90
232.63
227.67
224.71
222.50
219.23
213.00
202.57
187.81
169.84
150.44
131.44
114.18
99.27
86.77
76.58
68.60
62.86
59.47
58.47
59.79
63.26
68.51
74.97
81.83
88.16
93.05
95.80
96.18
94.49
91.46
88.03
85.04
83.07
82.30
82.48
83.00
83.01
81.64
78.29
72.84
65.82
58.20
51.08
45.18
40.57
36.70
32.83
28.41
23.39
18.11
12.96
8.00
2.87
-2.95
-9.82
-17.65
-25.96
-34.14
-41.70
-48.43
-54.20
-58.74
-61.46
-61.54
-58.35
-51.90
-43.04
-33.47
-25.20
-19.89
-18.39
-20.47
-25.01
-30.41
-35.01
-37.31
-36.16
-30.81
-21.13
-7.88
7.38
22.54
35.60
45.23
51.06
53.54
53.49
51.76
49.06
46.16
43.86
42.84
43.26
44.41
44.92
43.38
39.15
32.71
25.46
18.89
13.85
10.23
7.29
4.29
1.04
-2.13
-4.76
-6.71
-8.28
-9.85
-11.35
-12.10
-11.05
-7.61
-2.23
3.56
7.72
8.67
6.11
1.14
-4.34
-8.50
-10.41
-10.29
-9.12
-8.08
-7.98
-9.12
-11.35
-14.40
-18.04
-22.03
-26.17
-30.28
-34.26
-38.29
-42.79
-48.23
-54.86
-62.45
-70.34
-77.69
-83.83
-88.46
-91.58
-93.26
-93.47
-92.11
-89.15
-84.92
-80.03
-75.29
-71.29
-68.23
-65.88
-63.80
-61.55
-58.89
-55.82
-52.44
-48.89
-45.27
-41.65
-38.13
-34.87
-32.00
-29.64
-27.85
-26.59
-25.77
-25.20
-24.62
-23.66
-21.98
-19.34
-15.75
-11.45
-6.89
-2.52
1.28
4.40
6.92
9.10
11.19
13.31
15.39
17.19
18.43
18.94
18.78
18.20
17.54
17.02
16.66
16.28
15.58
14.32
12.47
10.23
7.89
5.77
4.09
2.90
2.08
1.39
0.49
-1.01
-3.39
-6.72
-10.64
-14.40
-17.01
-17.62
-15.89
-12.19
-7.54
-3.24
-0.45
0.16
-1.47
-4.94
-9.70
-15.19
-20.94
-26.50
-31.43
-35.21
-37.43
-37.90
-36.75
-34.38
-31.35
-28.19
-25.23
-22.56
-20.09
-17.63
-15.06
-12.35
-9.54
-6.72
-3.93
-1.18
1.48
3.99
6.21
8.01
9.29
10.06
10.45
10.66
10.90
11.29
11.80
12.28
12.51
12.33
11.70
10.75
9.71
8.86
8.37
8.31
8.59
9.11
9.76
10.50
11.37
12.39
13.55
14.75
15.83
16.63
17.04
17.02
16.56
15.74
14.63
13.35
12.02
10.78
9.67
8.59
7.34
5.67
3.46
0.74
-2.23
-4.99
-7.09
-8.15
-8.05
-6.89
-4.98
-2.67
-0.36
1.74
3.52
5.03
6.42
7.87
9.48
11.19
12.80
13.99
14.49
14.13
12.98
11.25
9.27
7.37
5.77
4.62
3.97
3.85
4.19
4.86
5.65
6.31
6.70
6.81
6.82
7.00
7.50
8.28
9.11
9.68
9.74
9.23
8.23
6.90
5.37
3.66
1.79
-0.22
-2.30
-4.29
-6.10
-7.69
-9.12
-10.48
-11.79
-13.03
-14.12
-14.98
-15.74
-16.68
-18.21
-20.75
-24.46
-29.16
-34.33
-39.16
-42.91
-45.00
-45.21
-43.65
-40.72
-36.98
-33.03
-29.37
-26.31
-23.91
-22.03
-20.40
-18.74
-16.87
-14.80
-12.66
-10.69
-9.14
-8.21
-7.97
-8.27
-8.77
-9.01
-8.50
-6.95
-4.36
-0.95
2.85
6.63
10.06
12.88
14.88
15.90
15.83
14.67
12.70
10.31
8.02
6.24
5.17
4.74
4.70
4.75
4.64
4.21
3.40
2.20
0.63
-1.30
-3.50
-5.89
-8.35
-10.83
-13.35
-16.01
-18.96
-22.26
-25.86
-29.46
-32.67
-35.05
-36.24
-35.99
-34.26
-31.16
-26.93
-21.96
-16.65
-11.43
-6.65
-2.54
0.81
3.42
5.44
7.03
8.37
9.59
10.83
12.21
13.82
15.71
17.92
20.38
22.91
25.28
27.29
28.76
29.65
30.03
29.98
29.57
28.76
27.48
25.64
23.27
20.50
17.51
14.52
11.68
9.04
6.53
4.03
1.38
-1.46
-4.50
-7.59
-10.60
-13.45
-16.16
-18.89
-21.88
-25.28
-29.11
-33.26
-37.50
-41.57
-45.23
-48.21
-50.17
-50.68
-49.40
-46.24
-41.38
-35.40
-29.01
-22.88
-17.40
-12.65
-8.40
-4.38
-0.38
3.59
7.38
10.79
13.73
16.24
18.52
20.76
23.08
25.39
27.50
29.23
30.49
31.31
31.85
32.17
32.26
31.96
31.13
29.71
27.83
25.69
23.51
21.46
19.56
17.83
16.24
14.77
13.32
11.77
9.90
7.56
4.69
1.36
-2.28
-6.01
-9.63
-13.01
-16.12
-19.03
-21.98
-25.25
-29.12
-33.72
-38.87
-44.12
-48.77
-52.06
-53.35
-52.30
-48.91
-43.57
-36.93
-29.82
-22.99
-16.95
-11.81
-7.35
-3.16
1.12
5.62
10.17
14.43
18.05
20.90
23.13
25.05
26.97
29.04
31.18
33.21
34.97
36.39
37.55
38.45
39.06
39.19
38.73
37.69
36.23
34.61
33.01
31.44
29.73
27.75
25.42
22.90
20.38
18.02
15.80
13.55
11.01
8.04
4.67
1.07
-2.53
-5.97
-9.25
-12.58
-16.23
-20.49
-25.52
-31.30
-37.59
-43.94
-49.74
-54.26
-56.78
-56.73
-53.89
-48.48
-41.18
-32.94
-24.74
-17.33
-11.04
-5.88
-1.60
2.08
5.34
8.21
10.61
12.52
14.04
15.35
16.71
18.34
20.31
22.58
24.95
27.22
29.18
30.67
31.61
31.96
31.69
30.83
29.42
27.55
25.33
22.93
20.51
18.20
16.07
14.07
12.07
9.90
7.42
4.67
1.77
-1.02
-3.50
-5.55
-7.23
-8.76
-10.45
-12.68
-15.76
-19.91
-25.12
-31.18
-37.65
-43.82
-48.89
-52.00
-52.54
-50.24
-45.34
-38.48
-30.57
-22.52
-15.00
-8.39
-2.75
1.99
5.97
9.29
12.03
14.31
16.28
18.13
20.01
22.01
24.10
26.22
28.24
30.03
31.48
32.49
32.99
32.95
32.40
31.41
30.08
28.49
26.65
24.58
22.29
19.87
17.47
15.31
13.49
11.99
10.62
9.13
7.31
5.10
2.58
-0.05
-2.67
-5.24
-7.92
-10.93
-14.49
-18.69
-23.48
-28.62
-33.71
-38.19
-41.42
-42.79
-41.88
-38.64
-33.44
-27.07
-20.50
-14.54
-9.65
-5.79
-2.56
0.55
3.90
7.54
11.22
14.58
17.28
19.21
20.46
21.27
21.92
22.65
23.59
24.77
26.07
27.33
28.35
28.97
29.10
28.75
28.06
27.13
26.03
24.76
23.19
21.26
18.94
16.31
13.56
10.84
8.28
5.85
3.47
0.98
-1.75
-4.79
-8.11
-11.59
-15.06
-18.39
-21.52
-24.56
-27.74
-31.39
-35.86
-41.38
-47.89
-54.95
-61.67
-66.84
-69.26
-68.08
-63.19
-55.29
-45.64
-35.63
-26.37
-18.46
-11.91
-6.48
-1.83
2.29
6.00
9.39
12.55
15.61
18.66
21.73
24.75
27.60
30.20
32.49
34.52
36.36
38.07
39.64
41.01
41.96
42.26
41.74
40.38
38.33
35.89
33.35
30.92
28.70
26.63
24.64
22.64
20.54
18.32
15.98
13.49
10.84
8.06
5.16
2.11
-1.12
-4.54
-8.19
-11.96
-15.73
-19.36
-22.89
-26.54
-30.73
-35.85
-42.07
-49.08
-56.04
-61.74
-64.92
-64.66
-60.70
-53.55
-44.36
-34.51
-25.24
-17.27
-10.79
-5.52
-1.03
3.04
6.86
10.36
13.45
16.06
18.28
20.25
22.13
24.03
25.97
27.91
29.82
31.67
33.44
35.10
36.54
37.58
38.02
37.71
36.59
34.70
32.18
29.19
25.97
22.73
19.71
17.07
14.85
12.92
11.04
8.95
6.42
3.41
0.01
-3.58
-7.16
-10.54
-13.69
-16.71
-19.80
-23.23
-27.29
-32.24
-38.18
-44.93
-51.91
-58.13
-62.36
-63.46
-60.83
-54.62
-45.81
-35.82
-26.07
-17.50
-10.44
-4.68
0.21
4.56
8.55
12.13
15.28
18.01
20.37
22.49
24.54
26.71
29.18
32.10
35.50
39.25
43.12
46.84
50.18
53.03
55.34
57.06
58.11
58.37
57.79
56.42
54.41
51.95
49.17
46.12
42.76
39.05
34.97
30.60
26.03
21.40
16.80
12.30
7.91
3.60
-0.68
-5.05
-9.60
-14.42
-19.56
-24.99
-30.58
-36.13
-41.36
-45.94
-49.66
-52.37
-54.08
-54.82
-54.61
-53.36
-51.02
-47.58
-43.20
-38.20
-32.89
-27.50
-22.07
-16.61
-11.19
-5.99
-1.30
2.72
6.07
8.98
11.75
14.56
17.35
19.94
22.12
23.83
25.19
26.35
27.41
28.28
28.80
28.82
28.30
27.34
26.11
24.75
23.35
21.98
20.67
19.48
18.45
17.54
16.67
15.69
14.47
12.95
11.18
9.19
7.07
4.94
2.90
0.99
-0.83
-2.72
-4.94
-7.72
-11.15
-15.15
-19.43
-23.61
-27.26
-29.97
-31.40
-31.36
-29.88
-27.20
-23.78
-20.17
-16.87
-14.15
-12.05
-10.40
-8.94
-7.42
-5.68
-3.70
-1.53
0.73
2.97
5.08
6.99
8.60
9.80
10.46
10.50
9.91
8.83
7.45
6.00
4.67
3.57
2.69
1.96
1.28
0.57
-0.18
-0.88
-1.40
-1.63
-1.51
-1.00
-0.15
1.05
2.58
4.36
6.20
7.74
8.60
8.40
7.02
4.56
1.36
-2.19
-5.78
-9.27
-12.68
-16.14
-19.77
-23.63
-27.67
-31.69
-35.42
-38.52
-40.64
-41.52
-41.17
-39.82
-37.89
-35.86
-34.03
-32.47
-30.97
-29.19
-26.86
-23.89
-20.43
-16.84
-13.55
-10.91
-9.04
-7.75
-6.57
-4.86
-2.01
2.34
8.20
15.09
22.14
28.21
32.22
33.57
32.43
29.85
27.46
26.98
29.59
35.50
44.03
53.86
63.68
72.41
79.34
83.97
85.88
84.85
81.01
75.05
68.18
61.81
57.06
54.39
53.45
53.31
52.84
51.05
47.34
41.51
33.72
24.44
14.57
5.56
-0.79
-2.72
0.88
9.85
22.59
36.46
48.49
56.37
58.95
56.30
49.42
39.64
28.25
16.33
4.80
-5.64
-14.54
-21.92
-28.25
-34.37
-41.10
-48.99
-58.09
-67.90
-77.56
-86.08
-92.54
-96.29
-97.09
-95.14
-91.04
-85.74
-80.21
-75.27
-71.32
-68.37
-66.12
-64.27
-62.67
-61.44
-60.79
-60.92
-61.79
-63.13
-64.53
-65.64
-66.21
-66.16
-65.46
-64.08
-61.87
-58.65
-54.30
-48.88
-42.59
-35.78
-28.83
-21.99
-15.44
-9.23
-3.49
1.65
5.96
9.30
11.78
13.72
15.56
17.64
20.03
22.43
24.36
25.42
25.40
24.48
22.99
21.26
19.44
17.52
15.40
13.07
10.68
8.51
6.81
5.65
4.90
4.25
3.34
1.90
-0.18
-2.78
-5.69
-8.61
-11.30
-13.50
-14.97
-15.42
-14.51
-12.01
-7.85
-2.30
4.18
11.02
17.75
24.13
30.09
35.62
40.66
45.03
48.51
50.97
52.41
52.99
52.91
52.38
51.57
50.59
49.53
48.46
47.40
46.29
45.01
43.39
41.28
38.70
35.74
32.70
29.81
27.23
24.91
22.66
20.24
17.47
14.42
11.23
8.09
5.06
2.04
-1.16
-4.66
-8.51
-12.68
-17.16
-22.08
-27.61
-33.78
-40.35
-46.77
-52.42
-56.96
-60.53
-63.67
-67.00
-70.81
-74.80
-78.16
-79.90
-79.26
-75.98
-70.27
-62.72
-54.01
-44.80
-35.61
-26.94
-19.18
-12.60
-7.34
-3.29
-0.16
2.43
4.90
7.51
10.35
13.32
16.21
18.78
20.92
22.60
23.91
24.97
25.85
26.56
27.03
27.13
26.70
25.64
23.96
21.82
19.43
17.02
14.70
12.44
10.16
7.78
5.38
3.16
1.35
0.11
-0.56
-0.81
-0.82
-0.69
-0.42
0.08
0.81
1.65
2.27
2.26
1.34
-0.56
-3.16
-5.92
-8.24
-9.63
-9.92
-9.27
-8.04
-6.65
-5.38
-4.33
-3.37
-2.31
-1.02
0.55
2.35
4.29
6.30
8.32
10.23
11.89
13.14
13.84
14.00
13.76
13.39
13.16
13.27
13.77
14.59
15.55
16.44
17.05
17.25
16.96
16.25
15.28
14.23
13.24
12.33
11.39
10.30
8.94
7.34
5.67
4.14
2.89
1.91
1.04
0.06
-1.21
-2.82
-4.67
-6.58
-8.44
-10.22
-11.97
-13.77
-15.68
-17.71
-19.90
-22.33
-25.15
-28.45
-32.19
-36.09
-39.67
-42.32
-43.62
-43.43
-42.04
-39.90
-37.45
-34.94
-32.30
-29.29
-25.65
-21.30
-16.33
-10.98
-5.48
-0.06
5.11
9.85
13.91
17.09
19.31
20.70
21.53
22.20
22.97
23.95
25.03
25.94
26.46
26.45
25.95
25.14
24.22
23.33
22.52
21.69
20.76
19.73
18.65
17.63
16.69
15.75
14.62
13.16
11.34
9.29
7.18
5.12
3.06
0.81
-1.85
-4.98
-8.45
-11.95
-15.18
-18.00
-20.51
-23.01
-25.83
-29.14
-32.81
-36.48
-39.65
-41.83
-42.72
-42.26
-40.49
-37.55
-33.61
-28.83
-23.48
-17.90
-12.43
-7.32
-2.73
1.34
4.85
7.74
9.91
11.34
12.11
12.52
12.89
13.49
14.44
15.68
17.10
18.57
20.02
21.38
22.57
23.46
23.89
23.77
23.03
21.78
20.19
18.51
16.93
15.61
14.56
13.65
12.67
11.37
9.59
7.32
4.66
1.87
-0.74
-2.89
-4.47
-5.52
-6.37
-7.46
-9.25
-11.96
-15.54
-19.62
-23.64
-27.09
-29.65
-31.20
-31.77
-31.40
-30.16
-28.06
-25.16
-21.57
-17.50
-13.13
-8.62
-4.10
0.30
4.41
8.07
11.17
13.69
15.72
17.40
18.83
20.05
21.02
21.74
22.23
22.59
22.86
23.07
23.15
23.03
22.62
21.83
20.56
18.68
16.13
13.00
9.61
6.47
4.15
3.08
3.34
4.72
6.72
8.78
10.41
11.31
11.32
10.44
8.66
5.98
2.43
-1.86
-6.62
-11.48
-16.10
-20.31
-24.17
-27.92
-31.76
-35.64
-39.21
-41.92
-43.26
-43.00
-41.19
-38.04
-33.81
-28.65
-22.74
-16.37
-10.00
-4.09
1.02
5.33
9.14
12.85
16.76
20.88
24.91
28.44
31.14
32.95
34.10
34.98
35.97
37.21
38.55
39.62
40.06
39.69
38.66
37.35
36.21
35.49
35.16
34.93
34.47
33.53
32.09
30.26
28.23
26.09
23.89
21.61
19.22
16.73
14.19
11.65
9.17
6.70
4.21
1.66
-0.99
-3.69
-6.44
-9.22
-12.05
-14.97
-17.96
-20.92
-23.61
-25.72
-26.94
-27.07
-26.09
-24.16
-21.57
-18.70
-15.88
-13.40
-11.38
-9.79
-8.48
-7.25
-5.93
-4.43
-2.74
-0.90
0.99
2.81
4.44
5.77
6.73
7.37
7.83
8.26
8.82
9.49
10.14
10.58
10.70
10.50
10.09
9.63
9.17
8.64
7.92
6.89
5.57
4.08
2.59
1.22
-0.02
-1.19
-2.31
-3.36
-4.26
-4.97
-5.59
-6.34
-7.46
-9.11
-11.34
-14.06
-17.20
-20.63
-24.17
-27.56
-30.37
-32.11
-32.40
-31.07
-28.32
-24.62
-20.60
-16.82
-13.62
-11.12
-9.22
-7.77
-6.58
-5.55
-4.60
-3.73
-2.85
-1.88
-0.73
0.66
2.24
3.88
5.40
6.65
7.56
8.16
8.55
8.89
9.28
9.69
10.03
10.12
9.86
9.24
8.36
7.36
6.37
5.39
4.38
3.29
2.07
0.78
-0.54
-1.90
-3.37
-4.99
-6.84
-8.88
-11.00
-13.11
-15.15
-17.19
-19.45
-22.13
-25.34
-28.96
-32.59
-35.72
-37.87
-38.76
-38.43
-37.16
-35.29
-33.10
-30.70
-28.12
-25.31
-22.29
-19.10
-15.76
-12.30
-8.68
-4.93
-1.15
2.48
5.84
8.86
11.62
14.27
16.91
19.57
22.09
24.33
26.17
27.56
28.54
29.16
29.44
29.40
29.11
28.70
28.31
27.99
27.70
27.24
26.42
25.13
23.44
21.53
19.62
17.82
16.13
14.45
12.68
10.78
8.77
6.65
4.41
2.01
-0.59
-3.39
-6.36
-9.53
-12.96
-16.74
-20.92
-25.35
-29.71
-33.56
-36.45
-38.10
-38.47
-37.70
-36.08
-33.93
-31.60
-29.39
-27.52
-25.99
-24.62
-23.02
-20.75
-17.54
-13.39
-8.63
-3.78
0.71
4.57
7.86
10.82
13.71
16.63
19.50
22.16
24.45
26.33
27.87
29.18
30.33
31.29
32.02
32.48
32.66
32.55
32.13
31.36
30.17
28.51
26.37
23.82
20.96
17.98
15.09
12.46
10.17
8.13
6.15
4.00
1.55
-1.14
-3.87
-6.49
-9.00
-11.59
-14.52
-17.96
-21.83
-25.78
-29.38
-32.22
-34.10
-35.04
-35.15
-34.59
-33.48
-31.93
-30.03
-27.86
-25.50
-22.95
-20.15
-17.03
-13.56
-9.89
-6.23
-2.78
0.36
3.26
6.08
8.96
11.89
14.66
17.03
18.80
19.98
20.79
21.49
22.27
23.12
23.83
24.15
23.91
23.11
21.92
20.53
19.10
17.68
16.19
14.57
12.76
10.75
8.58
6.25
3.79
1.24
-1.35
-3.89
-6.35
-8.78
-11.36
-14.32
-17.86
-22.10
-26.88
-31.91
-36.72
-40.81
-43.78
-45.39
-45.57
-44.40
-42.06
-38.75
-34.71
-30.16
-25.37
-20.55
-15.84
-11.31
-6.90
-2.56
1.66
5.68
9.34
12.59
15.45
18.11
20.73
23.39
25.98
28.29
30.06
31.16
31.60
31.57
31.31
31.01
30.77
30.54
30.21
29.62
28.67
27.28
25.44
23.19
20.64
17.97
15.33
12.88
10.72
8.82
7.14
5.57
4.01
2.38
0.59
-1.46
-3.86
-6.68
-9.98
-13.77
-18.08
-22.87
-28.05
-33.34
-38.32
-42.48
-45.34
-46.62
-46.33
-44.76
-42.40
-39.75
-37.21
-34.85
-32.57
-30.10
-27.16
-23.59
-19.33
-14.43
-9.01
-3.22
2.76
8.70
14.30
19.33
23.62
27.13
29.96
32.24
34.11
35.63
36.82
37.66
38.14
38.29
38.18
37.84
37.36
36.69
35.81
34.62
33.01
30.93
28.40
25.55
22.56
19.65
17.02
14.74
12.77
10.95
9.02
6.74
4.02
0.91
-2.36
-5.47
-8.17
-10.33
-12.01
-13.39
-14.71
-16.17
-17.84
-19.60
-21.18
-22.24
-22.51
-21.89
-20.44
-18.42
-16.14
-13.92
-12.00
-10.52
-9.53
-8.96
-8.65
-8.36
-7.87
-7.01
-5.79
-4.34
-2.85
-1.46
-0.19
1.09
2.59
4.55
7.09
10.22
13.78
17.52
21.15
24.42
27.17
29.32
30.88
31.90
32.41
32.39
31.83
30.71
29.10
27.13
24.94
22.62
20.20
17.71
15.12
12.42
9.62
6.62
3.36
-0.24
-4.20
-8.43
-12.78
-17.06
-21.19
-25.17
-29.14
-33.23
-37.55
-42.03
-46.44
-50.41
-53.57
-55.60
-56.38
-55.89
-54.20
-51.35
-47.35
-42.30
-36.44
-30.15
-23.90
-18.05
-12.75
-7.92
-3.43
0.78
4.56
7.68
10.05
11.76
13.18
14.70
16.55
18.69
20.83
22.64
23.92
24.61
24.82
24.65
24.17
23.36
22.19
20.68
18.96
17.26
15.75
14.52
13.51
12.54
11.41
9.97
8.21
6.23
4.16
2.09
0.04
-2.04
-4.27
-6.75
-9.66
-13.15
-17.34
-22.27
-27.82
-33.66
-39.34
-44.36
-48.20
-50.45
-50.84
-49.29
-45.91
-41.03
-35.05
-28.37
-21.31
-14.05
-6.71
0.59
7.70
14.49
20.89
26.91
32.62
38.02
43.03
47.44
50.98
53.51
55.00
55.60
55.50
54.92
53.98
52.70
51.09
49.14
46.88
44.34
41.57
38.60
35.51
32.42
29.52
26.96
24.81
22.95
21.08
18.87
16.12
12.84
9.29
5.80
2.60
-0.33
-3.23
-6.44
-10.20
-14.54
-19.31
-24.29
-29.34
-34.41
-39.49
-44.52
-49.18
-53.02
-55.55
-56.45
-55.75
-53.79
-51.05
-48.00
-44.85
-41.60
-38.09
-34.15
-29.73
-24.89
-19.81
-14.70
-9.75
-5.15
-1.06
2.33
4.94
6.77
8.02
8.98
10.01
11.28
12.62
13.55
13.34
11.42
7.61
2.34
-3.46
-8.76
-12.79
-15.33
-16.71
-17.48
-18.04
-18.46
-18.59
-18.34
-17.95
-17.99
-19.11
-21.71
-25.67
-30.24
-34.31
-36.59
-35.83
-30.92
-20.98
-5.63
14.68
38.28
62.48
84.07
100.39
110.24
114.36
115.03
114.93
116.00
118.56
121.36
122.45
120.22
114.19
105.08
94.23
82.80
71.27
59.52
47.28
34.70
22.61
12.19
4.39
-0.69
-3.89
-6.65
-10.22
-15.06
-20.54
-25.27
-27.81
-27.35
-24.09
-19.11
-13.89
-9.61
-6.76
-5.08
-3.84
-2.32
-0.20
2.32
4.74
6.54
7.55
7.98
8.29
8.90
9.92
11.18
12.27
12.87
12.82
12.26
11.46
10.66
9.92
9.14
8.08
6.48
4.22
1.35
-1.94
-5.39
-8.74
-11.83
-14.53
-16.78
-18.51
-19.61
-20.06
-19.89
-19.34
-18.70
-18.35
-18.54
-19.33
-20.49
-21.55
-21.91
-21.03
-18.71
-15.18
-11.09
-7.30
-4.58
-3.29
-3.31
-4.10
-5.04
-5.68
-5.93
-6.00
-6.19
-6.68
-7.39
-8.09
-8.53
-8.66
-8.62
-8.70
-9.16
-10.04
-11.18
-12.30
-13.10
-13.39
-13.09
-12.23
-10.83
-8.96
-6.78
-4.49
-2.40
-0.73
0.34
0.80
0.72
0.21
-0.73
-2.14
-4.17
-6.99
-10.65
-14.99
-19.57
-23.70
-26.62
-27.77
-26.94
-24.36
-20.60
-16.31
-12.05
-8.25
-5.13
-2.84
-1.45
-0.94
-1.16
-1.92
-2.90
-3.87
-4.64
-5.13
-5.31
-5.24
-4.97
-4.60
-4.21
-3.87
-3.63
-3.57
-3.72
-4.05
-4.42
-4.53
-4.12
-3.08
-1.56
0.03
1.25
1.81
1.74
1.29
0.80
0.39
-0.01
-0.61
-1.51
-2.58
-3.52
-4.01
-3.96
-3.53
-3.06
-2.79
-2.73
-2.67
-2.34
-1.59
-0.58
0.33
0.77
0.62
0.01
-0.71
-1.15
-1.14
-0.75
-0.26
0.06
0.07
-0.13
-0.35
-0.38
-0.21
-0.00
-0.00
-0.40
-1.18
-2.13
-2.92
-3.33
-3.28
-2.94
-2.55
-2.33
-2.36
-2.57
-2.85
-3.14
-3.43
-3.71
-3.91
-3.92
-3.54
-2.70
-1.47
-0.13
0.93
1.36
0.98
-0.09
-1.45
-2.61
-3.13
-2.88
-2.07
-1.16
-0.63
-0.68
-1.20
-1.85
-2.26
-2.32
-2.17
-2.10
-2.34
-2.87
-3.49
-3.92
-4.06
-3.99
-3.95
-4.10
-4.41
-4.65
-4.57
-4.07
-3.26
-2.47
-2.02
-2.04
-2.39
-2.80
-2.95
-2.69
-2.09
-1.34
-0.69
-0.30
-0.20
-0.34
-0.62
-1.00
-1.45
-1.97
-2.48
-2.89
-3.12
-3.22
-3.33
-3.69
-4.36
-5.22
-5.93
-6.06
-5.32
-3.71
-1.56
0.63
2.39
3.40
3.62
3.17
2.29
1.23
0.22
-0.61
-1.17
-1.45
-1.49
-1.39
-1.32
-1.37
-1.61
-1.99
-2.37
-2.58
-2.52
-2.26
-2.02
-2.05
-2.47
-3.23
-4.10
-4.78
-5.11
-5.17
-5.14
-5.22
-5.46
-5.67
-5.63
-5.17
-4.31
-3.29
-2.38
-1.75
-1.41
-1.20
-0.92
-0.51
0.00
0.41
0.57
0.42
0.09
-0.23
-0.38
-0.38
-0.45
-0.82
-1.67
-2.88
-4.09
-4.86
-4.78
-3.77
-2.01
0.09
2.07
3.52
4.21
4.16
3.54
2.62
1.67
0.86
0.25
-0.26
-0.76
-1.35
-1.99
-2.57
-2.96
-3.08
-2.94
-2.63
-2.28
-2.02
-1.95
-2.10
-2.46
-2.96
-3.52
-4.05
-4.50
-4.84
-5.04
-5.08
-4.92
-4.52
-3.91
-3.21
-2.59
-2.23
-2.22
-2.53
-2.97
-3.27
-3.23
-2.76
-1.98
-1.19
-0.72
-0.85
-1.65
-3.00
-4.64
-6.25
-7.59
-8.49
-8.89
-8.78
-8.27
-7.52
-6.79
-6.33
-6.27
-6.59
-7.08
-7.46
-7.51
-7.23
-6.80
-6.44
-6.33
-6.48
-6.72
-6.83
-6.60
-5.94
-4.89
-3.59
-2.19
-0.88
0.28
1.27
2.12
2.84
3.39
3.68
3.66
3.33
2.82
2.34
2.05
2.06
2.30
2.66
2.98
3.20
3.36
3.51
3.67
3.80
3.87
3.85
3.82
3.83
3.97
4.21
4.47
4.70
4.88
5.04
5.20
5.34
5.29
4.98
4.41
3.79
3.41
3.53
4.18
5.12
5.92
6.22
5.88
5.00
3.87
2.83
2.12
1.79
1.80
2.02
2.29
2.46
2.46
2.25
1.89
1.46
1.08
0.75
0.45
0.13
-0.22
-0.56
-0.84
-1.03
-1.19
-1.35
-1.56
-1.73
-1.70
-1.32
-0.61
0.28
1.07
1.53
1.56
1.26
0.77
0.22
-0.38
-1.10
-2.01
-3.08
-4.20
-5.20
-5.94
-6.40
-6.64
-6.78
-6.89
-6.95
-6.91
-6.73
-6.49
-6.33
-6.43
-6.80
-7.27
-7.48
-7.06
-5.83
-3.89
-1.68
0.28
1.55
1.98
1.75
1.15
0.51
-0.02
-0.46
-0.90
-1.40
-1.95
-2.42
-2.70
-2.72
-2.51
-2.18
-1.83
-1.50
-1.17
-0.77
-0.28
0.22
0.63
0.83
0.77
0.53
0.18
-0.20
-0.64
-1.17
-1.81
-2.47
-3.02
-3.36
-3.52
-3.63
-3.85
-4.22
-4.60
-4.73
-4.38
-3.49
-2.19
-0.79
0.47
1.45
2.14
2.60
2.86
2.86
2.49
1.68
0.49
-0.86
-2.06
-2.76
-2.72
-1.83
-0.20
1.82
3.82
5.34
6.08
5.93
5.03
3.63
2.08
0.64
-0.53
-1.43
-2.10
-2.59
-2.91
-3.05
-3.00
-2.84
-2.69
-2.68
-2.86
-3.14
-3.26
-3.00
-2.26
-1.16
-0.05
0.69
0.86
0.48
-0.19
-0.87
-1.38
-1.70
-1.93
-2.16
-2.32
-2.29
-1.97
-1.42
-0.84
-0.49
-0.50
-0.85
-1.30
-1.63
-1.71
-1.64
-1.64
-1.92
-2.59
-3.58
-4.69
-5.70
-6.48
-6.96
-7.14
-6.98
-6.42
-5.38
-3.86
-2.03
-0.15
1.42
2.36
2.57
2.12
1.30
0.47
-0.08
-0.23
-0.05
0.28
0.56
0.68
0.63
0.47
0.27
0.07
-0.12
-0.31
-0.43
-0.46
-0.33
-0.11
0.08
0.03
-0.38
-1.11
-1.98
-2.68
-3.01
-2.94
-2.66
-2.42
-2.41
-2.66
-3.02
-3.31
-3.40
-3.30
-3.07
-2.77
-2.37
-1.83
-1.16
-0.48
0.06
0.32
0.31
0.22
0.27
0.59
1.08
1.47
1.45
0.86
-0.19
-1.34
-2.16
-2.29
-1.59
-0.21
1.52
3.23
4.64
5.61
6.14
6.31
6.14
5.64
4.80
3.66
2.38
1.24
0.50
0.35
0.72
1.33
1.78
1.76
1.18
0.26
-0.64
-1.14
-1.10
-0.59
0.10
0.71
1.09
1.25
1.29
1.30
1.31
1.24
1.09
0.91
0.83
0.94
1.26
1.62
1.77
1.61
1.11
0.46
-0.13
-0.53
-0.74
-0.94
-1.26
-1.74
-2.28
-2.70
-2.90
-2.91
-2.91
-3.09
-3.58
-4.31
-5.02
-5.35
-4.97
-3.71
-1.64
0.91
3.52
5.77
7.36
8.17
8.26
7.77
6.90
5.81
4.67
3.58
2.64
1.88
1.30
0.88
0.55
0.33
0.21
0.18
0.19
0.17
0.04
-0.22
-0.54
-0.81
-0.90
-0.79
-0.54
-0.33
-0.34
-0.68
-1.31
-2.02
-2.51
-2.55
-2.06
-1.18
-0.18
0.68
1.21
1.40
1.32
1.14
0.95
0.75
0.52
0.26
-0.01
-0.23
-0.38
-0.50
-0.73
-1.16
-1.82
-2.57
-3.10
-3.11
-2.37
-0.91
1.07
3.15
4.93
6.09
6.50
6.20
5.37
4.22
2.97
1.78
0.78
0.04
-0.45
-0.78
-1.02
-1.24
-1.43
-1.53
-1.45
-1.19
-0.85
-0.68
-0.85
-1.39
-2.12
-2.72
-2.89
-2.54
-1.81
-1.05
-0.59
-0.64
-1.12
-1.76
-2.13
-1.83
-0.56
1.71
4.81
8.36
11.85
14.84
16.98
18.17
18.45
17.99
17.05
15.89
14.69
13.54
12.41
11.09
9.44
7.44
5.36
3.66
2.80
2.97
3.91
5.04
5.72
5.57
4.60
3.14
1.62
0.23
-1.03
-2.30
-3.64
-4.91
-5.85
-6.23
-6.05
-5.63
-5.40
-5.72
-6.67
-8.02
-9.33
-10.18
-10.34
-9.91
-9.10
-8.20
-7.38
-6.66
-6.00
-5.38
-4.83
-4.44
-4.21
-4.06
-3.82
-3.32
-2.55
-1.66
-0.98
-0.80
-1.21
-2.00
-2.81
-3.24
-3.12
-2.58
-2.03
-1.85
-2.23
-3.10
-4.13
-5.01
-5.60
-5.86
-5.95
-5.96
-5.80
-5.32
-4.41
-3.13
-1.76
-0.66
-0.17
-0.38
-1.15
-2.19
-3.20
-3.92
-4.24
-4.17
-3.77
-3.16
-2.48
-1.87
-1.46
-1.33
-1.47
-1.82
-2.22
-2.47
-2.42
-2.01
-1.30
-0.54
0.02
0.25
0.18
0.09
0.27
0.94
2.05
3.35
4.46
5.12
5.25
5.03
4.75
4.67
4.90
5.32
5.74
5.91
5.64
4.96
3.95
2.83
1.80
1.05
0.74
0.98
1.83
3.23
4.97
6.67
7.88
8.16
7.35
5.64
3.49
1.45
-0.06
-0.92
-1.28
-1.38
-1.43
-1.44
-1.30
-0.92
-0.30
0.41
1.05
1.56
2.03
2.59
3.29
3.98
4.34
4.10
3.18
1.79
0.33
-0.77
-1.32
-1.42
-1.32
-1.35
-1.63
-2.08
-2.46
-2.54
-2.23
-1.62
-0.94
-0.44
-0.29
-0.49
-0.93
-1.44
-1.86
-2.04
-1.93
-1.50
-0.81
0.02
0.81
1.33
1.42
1.08
0.44
-0.21
-0.58
-0.51
-0.04
0.60
1.08
1.15
0.79
0.19
-0.35
-0.58
-0.45
-0.08
0.34
0.62
0.74
0.76
0.71
0.56
0.25
-0.30
-1.02
-1.71
-2.16
-2.25
-2.09
-1.88
-1.84
-2.11
-2.64
-3.28
-3.84
-4.20
-4.36
-4.37
-4.35
-4.42
-4.64
-5.05
-5.54
-5.97
-6.17
-5.98
-5.28
-4.02
-2.26
-0.11
2.16
4.22
5.74
6.51
6.58
6.22
5.79
5.57
5.61
5.74
5.73
5.40
4.81
4.14
3.62
3.33
3.23
3.21
3.14
2.99
2.75
2.46
2.13
1.79
1.47
1.23
1.08
1.00
0.94
0.86
0.75
0.67
0.63
0.55
0.27
-0.33
-1.30
-2.47
-3.61
-4.49
-4.97
-5.05
-4.74
-4.08
-3.05
-1.70
-0.14
1.49
3.03
4.39
5.47
6.17
6.31
5.74
4.43
2.58
0.62
-1.00
-1.91
-2.08
-1.70
-1.10
-0.56
-0.26
-0.23
-0.44
-0.78
-1.18
-1.56
-1.81
-1.90
-1.78
-1.47
-1.04
-0.56
-0.12
0.17
0.25
0.15
-0.10
-0.38
-0.61
-0.74
-0.78
-0.77
-0.69
-0.54
-0.24
0.24
0.86
1.55
2.15
2.54
2.64
2.42
1.95
1.32
0.68
0.15
-0.17
-0.33
-0.41
-0.56
-0.94
-1.63
-2.62
-3.76
-4.79
-5.39
-5.26
-4.25
-2.48
-0.34
1.62
2.89
3.20
2.66
1.66
0.68
0.06
-0.12
-0.00
0.15
0.14
-0.08
-0.42
-0.70
-0.76
-0.54
-0.12
0.38
0.82
1.08
1.10
0.95
0.72
0.56
0.57
0.72
0.94
1.09
1.10
1.01
0.94
1.02
1.34
1.82
2.31
2.61
2.65
2.45
2.11
1.74
1.41
1.07
0.73
0.38
0.08
-0.05
0.01
0.19
0.35
0.26
-0.15
-0.77
-1.32
-1.43
-0.85
0.45
2.24
4.10
5.62
6.54
6.79
6.43
5.61
4.45
3.11
1.74
0.55
-0.27
-0.61
-0.48
-0.07
0.33
0.53
0.45
0.22
0.04
0.09
0.37
0.75
1.03
1.08
0.88
0.52
0.11
-0.28
-0.66
-1.07
-1.47
-1.77
-1.85
-1.67
-1.26
-0.82
-0.54
-0.51
-0.73
-1.09
-1.42
-1.61
-1.68
-1.69
-1.74
-1.88
-2.08
-2.33
-2.63
-3.03
-3.56
-4.15
-4.52
-4.37
-3.43
-1.69
0.55
2.75
4.38
5.12
4.97
4.22
3.23
2.33
1.69
1.33
1.19
1.19
1.28
1.41
1.57
1.77
2.00
2.24
2.50
2.76
3.03
3.32
3.59
3.73
3.64
3.23
2.49
1.57
0.65
-0.07
-0.53
-0.77
-0.92
-1.07
-1.23
-1.31
-1.25
-1.05
-0.76
-0.48
-0.25
-0.09
0.03
0.11
0.16
0.17
0.15
0.11
0.06
-0.05
-0.28
-0.67
-1.27
-2.02
-2.88
-3.78
-4.58
-5.08
-5.03
-4.23
-2.65
-0.52
1.67
3.40
4.29
4.28
3.60
2.63
1.71
0.94
0.28
-0.40
-1.10
-1.68
-1.90
-1.58
-0.71
0.48
1.67
2.58
3.08
3.21
3.11
2.91
2.64
2.26
1.76
1.13
0.42
-0.28
-0.86
-1.30
-1.58
-1.74
-1.84
-1.86
-1.80
-1.57
-1.13
-0.50
0.15
0.60
0.62
0.08
-0.91
-2.10
-3.12
-3.72
-3.79
-3.45
-2.92
-2.43
-2.14
-2.08
-2.25
-2.60
-3.07
-3.53
-3.77
-3.54
-2.71
-1.40
0.07
1.16
1.52
1.04
-0.03
-1.26
-2.26
-2.83
-3.04
-3.13
-3.34
-3.77
-4.40
-5.13
-5.76
-6.22
-6.46
-6.53
-6.53
-6.58
-6.76
-6.99
-7.14
-6.89
-5.92
-4.13
-1.80
0.33
1.18
-0.30
-4.64
-11.50
-19.54
-26.81
-31.22
-31.30
-26.66
-18.06
-7.19
3.78
12.88
18.85
21.52
21.82
21.48
22.37
25.76
31.85
39.92
48.76
57.36
65.46
73.45
81.91
91.13
100.87
110.52
119.27
126.00
128.95
125.57
113.16
90.29
58.26
21.56
-13.23
-39.89
-54.95
-58.82
-55.00
-47.85
-40.57
-34.17
-28.09
-21.68
-15.19
-10.02
-7.81
-9.40
-14.29
-20.76
-26.70
-30.53
-31.63
-30.44
-27.95
-25.16
-22.67
-20.54
-18.53
-16.48
-14.46
-12.79
-11.65
-10.73
-9.16
-5.77
0.26
8.82
18.74
27.99
34.50
36.99
35.43
31.03
25.62
20.84
17.54
15.56
14.03
11.86
8.23
2.85
-4.25
-12.86
-22.89
-34.26
-46.85
-60.17
-73.39
-85.44
-95.30
-102.31
-106.17
-106.96
-104.89
-100.24
-93.44
-85.38
-77.41
-71.08
-67.63
-67.39
-69.55
-72.57
-74.77
-75.07
-73.25
-69.75
-65.14
-59.76
-53.67
-46.88
-39.72
-32.85
-26.97
-22.56
-19.50
-17.13
-14.56
-10.98
-6.00
0.27
7.28
14.33
20.70
25.94
29.80
32.25
33.30
32.90
30.87
27.06
21.50
14.53
6.79
-1.02
-8.37
-15.09
-21.27
-27.08
-32.55
-37.42
-41.27
-43.72
-44.73
-44.71
-44.33
-44.41
-45.45
-47.50
-50.17
-52.75
-54.52
-54.91
-53.67
-50.83
-46.66
-41.53
-35.83
-29.90
-24.00
-18.28
-12.83
-7.71
-3.07
0.92
4.08
6.34
7.81
8.76
9.42
9.93
10.28
10.33
10.05
9.58
9.22
9.27
9.82
10.59
11.06
10.62
8.85
5.72
1.55
-3.16
-7.77
-11.74
-14.57
-15.79
-15.09
-12.33
-7.72
-1.88
4.32
10.02
14.63
18.00
20.40
22.24
23.84
25.29
26.43
27.06
27.07
26.53
25.63
24.62
23.65
22.77
21.98
21.24
20.60
20.11
19.84
19.74
19.64
19.26
18.28
16.45
13.65
9.94
5.57
0.90
-3.70
-7.88
-11.43
-14.27
-16.50
-18.41
-20.38
-22.83
-26.01
-29.90
-34.09
-37.87
-40.36
-40.82
-38.82
-34.44
-28.20
-20.83
-13.11
-5.56
1.47
7.80
13.33
17.89
21.40
23.88
25.62
27.06
28.78
31.25
34.61
38.67
42.91
46.66
49.35
50.69
50.66
49.43
47.22
44.16
40.28
35.63
30.39
24.89
19.49
14.40
9.55
4.57
-1.05
-7.73
-15.59
-24.34
-33.23
-41.26
-47.22
-50.10
-49.25
-44.58
-36.67
-26.56
-15.45
-4.41
5.85
15.04
23.09
29.97
35.56
39.61
42.00
42.88
42.72
42.28
42.29
43.20
44.98
47.25
49.40
50.92
51.50
51.10
49.77
47.56
44.43
40.33
35.31
29.56
23.36
16.99
10.53
3.85
-3.41
-11.65
-21.13
-31.73
-42.79
-53.15
-61.32
-65.91
-66.00
-61.44
-52.89
-41.60
-29.01
-16.37
-4.50
6.20
15.58
23.55
29.95
34.61
37.49
38.86
39.32
39.72
40.85
43.17
46.60
50.60
54.43
57.41
59.22
59.81
59.34
57.88
55.39
51.67
46.62
40.40
33.48
26.56
20.25
14.78
9.82
4.55
-2.11
-11.00
-22.29
-35.20
-48.14
-59.06
-65.97
-67.63
-63.78
-55.22
-43.47
-30.31
-17.29
-5.33
5.41
15.21
24.52
33.56
42.22
50.06
56.66
61.87
65.93
69.31
72.48
75.72
78.97
82.00
84.56
86.53
87.93
88.87
89.41
89.56
89.23
88.34
86.87
84.84
82.31
79.39
76.21
72.92
69.77
66.94
64.54
62.47
60.53
58.44
56.04
53.29
50.26
47.07
43.73
40.06
35.80
30.66
24.48
17.32
9.42
1.16
-7.08
-15.02
-22.52
-29.65
-36.62
-43.77
-51.43
-59.92
-69.38
-79.65
-90.23
-100.17
-108.33
-113.58
-115.20
-113.14
-108.04
-100.95
-92.97
-84.81
-76.64
-68.16
-58.94
-48.72
-37.58
-25.99
-14.57
-3.88
5.72
14.15
21.54
28.13
34.15
39.76
44.98
49.76
54.05
57.80
61.02
63.75
65.97
67.62
68.58
68.75
68.08
66.69
64.77
62.58
60.36
58.22
56.18
54.18
52.16
50.06
47.87
45.54
43.04
40.32
37.33
34.11
30.72
27.26
23.77
20.26
16.64
12.89
9.00
5.01
0.96
-3.12
-7.27
-11.58
-16.10
-20.85
-25.83
-31.07
-36.64
-42.57
-48.70
-54.60
-59.51
-62.57
-63.02
-60.47
-55.05
-47.30
-38.05
-28.16
-18.34
-9.09
-0.66
6.89
13.62
19.66
25.21
30.62
36.38
43.17
51.61
62.17
74.83
89.20
104.62
120.48
136.36
151.93
166.67
179.60
189.33
194.30
193.41
186.43
174.18
158.15
139.96
120.84
101.35
81.52
61.23
40.53
19.79
-0.50
-19.93
-38.40
-56.02
-72.96
-89.11
-104.07
-117.20
-127.95
-136.10
-141.83
-145.57
-147.68
-148.33
-147.34
-144.37
-139.18
-131.80
-122.67
-112.56
-102.36
-92.89
-84.68
-77.92
-72.53
-68.18
-64.42
-60.71
-56.50
-51.44
-45.42
-38.68
-31.78
-25.42
-20.34
-17.09
-15.94
-16.82
-19.30
-22.59
-25.68
-27.63
-27.82
-26.19
-23.20
-19.60
-16.07
-12.94
-10.19
-7.59
-4.97
-2.35
0.17
2.52
4.85
7.45
10.61
14.38
18.51
22.51
25.94
28.55
30.34
31.45
32.01
32.09
31.76
31.18
30.66
30.59
31.20
32.46
34.01
35.35
36.02
35.80
34.73
33.05
31.04
28.85
26.56
24.21
21.87
19.64
17.60
15.72
13.75
11.33
8.07
3.80
-1.32
-6.84
-12.13
-16.67
-20.21
-22.76
-24.54
-25.77
-26.55
-26.83
-26.56
-25.79
-24.72
-23.61
-22.66
-21.91
-21.31
-20.76
-20.26
-19.88
-19.70
-19.65
-19.57
-19.12
-18.09
-16.38
-14.16
-11.75
-9.48
-7.63
-6.35
-5.66
-5.53
-5.88
-6.63
-7.61
-8.60
-9.40
-9.88
-10.07
-10.23
-10.74
-11.94
-13.91
-16.47
-19.21
-21.74
-23.94
-25.98
-28.31
-31.33
-35.22
-39.74
-44.31
-48.20
-50.70
-51.27
-49.57
-45.59
-39.62
-32.28
-24.46
-16.99
-10.40
-4.63
0.86
6.87
13.88
21.80
29.81
36.78
41.72
44.23
44.61
43.54
41.71
39.47
36.83
33.63
29.90
25.97
22.42
19.73
18.05
17.07
16.15
14.63
12.15
8.77
4.94
1.19
-2.05
-4.63
-6.69
-8.57
-10.60
-12.94
-15.57
-18.25
-20.66
-22.56
-23.93
-24.97
-26.01
-27.39
-29.31
-31.86
-34.99
-38.59
-42.49
-46.36
-49.65
-51.61
-51.48
-48.75
-43.45
-36.16
-27.93
-19.93
-13.08
-7.77
-3.87
-0.92
1.56
3.91
6.19
8.27
9.98
11.28
12.24
13.06
13.89
14.84
15.88
16.96
18.05
19.11
20.14
20.99
21.53
21.54
20.95
19.79
18.30
16.74
15.38
14.35
13.60
12.95
12.14
10.94
9.22
7.01
4.46
1.78
-0.83
-3.25
-5.48
-7.57
-9.64
-11.75
-13.95
-16.24
-18.63
-21.13
-23.81
-26.80
-30.28
-34.42
-39.22
-44.37
-49.20
-52.74
-54.04
-52.47
-48.04
-41.38
-33.52
-25.57
-18.32
-12.10
-6.80
-2.06
2.48
7.00
11.46
15.72
19.61
23.09
26.21
29.14
32.03
34.95
37.87
40.64
43.03
44.78
45.74
45.83
45.17
43.99
42.61
41.29
40.15
39.16
38.19
37.08
35.71
34.05
32.08
29.79
27.12
24.02
20.48
16.52
12.29
7.96
3.72
-0.34
-4.19
-7.91
-11.64
-15.49
-19.48
-23.54
-27.56
-31.47
-35.29
-39.15
-43.10
-47.06
-50.79
-54.00
-56.43
-57.98
-58.67
-58.46
-57.27
-54.91
-51.25
-46.36
-40.55
-34.31
-28.17
-22.58
-17.77
-13.88
-10.94
-8.89
-7.53
-6.56
-5.54
-4.09
-1.97
0.82
4.03
7.26
10.12
12.25
13.48
13.85
13.56
12.90
12.13
11.40
10.72
10.01
9.19
8.29
7.36
6.50
5.72
4.95
4.02
2.80
1.21
-0.67
-2.71
-4.77
-6.78
-8.80
-10.99
-13.59
-16.86
-20.98
-26.02
-31.88
-38.26
-44.66
-50.42
-54.76
-56.95
-56.52
-53.38
-48.00
-41.31
-34.40
-28.26
-23.45
-19.94
-17.33
-15.01
-12.60
-10.03
-7.56
-5.59
-4.40
-3.97
-3.93
-3.71
-2.72
-0.66
2.44
6.17
9.92
13.04
15.12
16.15
16.48
16.81
17.80
19.89
23.02
26.64
29.75
31.27
30.28
26.28
19.39
10.30
0.15
-9.83
-18.58
-25.44
-30.24
-33.13
-34.38
-34.00
-31.70
-26.84
-18.85
-7.66
6.02
20.58
34.00
44.40
50.79
53.39
53.56
53.27
54.24
57.36
62.44
68.61
74.88
80.72
86.08
91.01
95.20
97.74
97.49
93.77
87.04
78.94
71.70
67.17
65.97
67.33
69.61
71.08
70.64
68.00
63.46
57.54
50.76
43.54
36.39
29.89
24.61
20.85
18.55
17.29
16.50
15.63
14.39
12.64
10.43
7.87
5.16
2.56
0.36
-1.22
-2.21
-2.88
-3.67
-4.92
-6.67
-8.58
-10.19
-11.16
-11.59
-12.02
-13.23
-15.88
-20.20
-25.82
-31.92
-37.43
-41.34
-42.96
-42.07
-38.99
-34.52
-29.74
-25.77
-23.43
-22.95
-24.09
-26.11
-28.22
-29.78
-30.45
-30.22
-29.19
-27.45
-25.01
-21.89
-18.28
-14.60
-11.42
-9.20
-8.16
-8.12
-8.55
-8.84
-8.50
-7.29
-5.36
-3.04
-0.75
1.17
2.50
3.15
3.12
2.38
1.01
-0.91
-3.20
-5.58
-7.75
-9.51
-10.79
-11.73
-12.59
-13.69
-15.20
-17.11
-19.21
-21.16
-22.63
-23.45
-23.57
-23.11
-22.12
-20.67
-18.76
-16.44
-13.93
-11.60
-9.89
-9.11
-9.30
-10.14
-11.09
-11.65
-11.55
-10.91
-10.10
-9.54
-9.45
-9.76
-10.11
-10.09
-9.46
-8.28
-6.84
-5.55
-4.66
-4.14
-3.75
-3.18
-2.29
-1.16
-0.09
0.61
0.80
0.56
0.16
-0.11
-0.10
0.09
0.26
0.16
-0.30
-1.03
-1.79
-2.30
-2.38
-2.02
-1.39
-0.75
-0.39
-0.51
-1.16
-2.29
-3.74
-5.24
-6.50
-7.23
-7.18
-6.31
-4.79
-2.99
-1.42
-0.46
-0.28
-0.78
-1.68
-2.68
-3.50
-4.03
-4.21
-4.06
-3.62
-3.03
-2.48
-2.17
-2.23
-2.64
-3.28
-3.98
-4.64
-5.29
-6.04
-6.98
-8.06
-9.16
-10.08
-10.63
-10.77
-10.52
-10.01
-9.40
-8.78
-8.21
-7.65
-7.05
-6.33
-5.46
-4.54
-3.67
-3.03
-2.66
-2.58
-2.71
-3.01
-3.43
-3.97
-4.59
-5.21
-5.70
-6.00
-6.12
-6.16
-6.31
-6.71
-7.38
-8.12
-8.60
-8.44
-7.41
-5.61
-3.42
-1.39
-0.01
0.45
0.03
-1.01
-2.34
-3.67
-4.80
-5.61
-6.07
-6.19
-6.08
-5.93
-5.90
-6.10
-6.53
-7.11
-7.75
-8.39
-8.94
-9.29
-9.33
-8.99
-8.35
-7.63
-7.09
-6.90
-7.00
-7.13
-6.99
-6.42
-5.48
-4.42
-3.50
-2.82
-2.38
-2.09
-1.87
-1.79
-1.94
-2.42
-3.18
-4.08
-4.92
-5.53
-5.83
-5.82
-5.56
-5.13
-4.68
-4.37
-4.37
-4.79
-5.59
-6.59
-7.44
-7.77
-7.28
-5.92
-3.87
-1.53
0.63
2.21
3.00
3.04
2.53
1.72
0.84
0.00
-0.72
-1.30
-1.74
-2.03
-2.21
-2.33
-2.37
-2.27
-1.96
-1.38
-0.57
0.32
1.07
1.52
1.64
1.51
1.32
1.17
1.06
0.87
0.43
-0.32
-1.29
-2.23
-2.89
-3.08
-2.85
-2.37
-1.85
-1.42
-1.11
-0.84
-0.56
-0.30
-0.12
-0.06
-0.09
-0.08
0.07
0.36
0.64
0.69
0.32
-0.55
-1.82
-3.28
-4.62
-5.52
-5.65
-4.82
-3.08
-0.70
1.79
3.81
4.98
5.15
4.48
3.31
1.98
0.75
-0.29
-1.08
-1.63
-1.94
-2.01
-1.86
-1.50
-0.97
-0.35
0.27
0.77
1.08
1.19
1.20
1.27
1.56
2.10
2.82
3.59
4.22
4.52
4.40
3.76
2.59
0.98
-0.84
-2.59
-3.98
-4.80
-5.02
-4.72
-4.08
-3.35
-2.71
-2.35
-2.33
-2.58
-2.93
-3.15
-3.05
-2.61
-1.99
-1.42
-1.08
-1.06
-1.30
-1.66
-2.01
-2.16
-1.96
-1.24
0.09
1.95
4.05
5.90
7.04
7.17
6.33
4.80
3.01
1.37
0.09
-0.80
-1.41
-1.89
-2.32
-2.69
-2.96
-3.05
-2.93
-2.61
-2.17
-1.65
-1.11
-0.60
-0.18
0.11
0.20
0.08
-0.19
-0.55
-0.87
-1.09
-1.14
-1.04
-0.80
-0.51
-0.25
-0.11
-0.12
-0.23
-0.37
-0.43
-0.36
-0.19
-0.05
-0.09
-0.45
-1.10
-1.91
-2.72
-3.34
-3.68
-3.73
-3.56
-3.30
-3.12
-3.13
-3.42
-3.95
-4.50
-4.73
-4.23
-2.75
-0.33
2.63
5.52
7.76
8.96
9.11
8.46
7.37
6.18
5.03
3.92
2.80
1.64
0.54
-0.37
-0.97
-1.24
-1.28
-1.27
-1.35
-1.57
-1.88
-2.19
-2.42
-2.65
-3.00
-3.58
-4.43
-5.42
-6.32
-6.95
-7.13
-6.86
-6.17
-5.15
-3.88
-2.47
-1.03
0.33
1.51
2.46
3.24
3.90
4.48
4.91
5.03
4.67
3.78
2.53
1.23
0.17
-0.44
-0.61
-0.54
-0.52
-0.77
-1.33
-2.10
-2.78
-3.05
-2.67
-1.56
0.12
2.05
3.82
5.15
5.87
6.04
5.83
5.38
4.77
4.02
3.14
2.26
1.53
1.10
1.04
1.22
1.47
1.62
1.66
1.62
1.60
1.62
1.58
1.40
1.04
0.55
0.10
-0.15
-0.19
-0.09
-0.05
-0.23
-0.64
-1.16
-1.58
-1.72
-1.51
-1.02
-0.41
0.19
0.73
1.23
1.69
2.09
2.30
2.26
1.98
1.62
1.38
1.38
1.55
1.69
1.52
0.86
-0.33
-1.88
-3.45
-4.63
-5.08
-4.56
-3.13
-1.09
1.10
2.94
4.05
4.40
4.11
3.46
2.72
2.03
1.40
0.84
0.35
-0.02
-0.23
-0.25
-0.14
-0.03
-0.06
-0.34
-0.91
-1.70
-2.54
-3.21
-3.49
-3.27
-2.57
-1.57
-0.54
0.22
0.52
0.37
-0.03
-0.42
-0.53
-0.26
0.27
0.84
1.18
1.12
0.71
0.16
-0.31
-0.50
-0.44
-0.34
-0.37
-0.64
-1.08
-1.47
-1.59
-1.35
-0.78
-0.04
0.68
1.29
1.75
2.04
2.14
2.01
1.73
1.46
1.50
2.06
3.21
4.70
6.07
6.81
6.64
5.57
3.94
2.21
0.78
-0.15
-0.60
-0.73
-0.71
-0.63
-0.53
-0.38
-0.17
0.07
0.28
0.38
0.31
0.09
-0.19
-0.36
-0.26
0.24
1.07
2.05
2.89
3.41
3.55
3.46
3.37
3.46
3.80
4.28
4.73
5.01
5.12
5.17
5.29
5.57
6.04
6.61
7.15
7.49
7.53
7.17
6.46
5.49
4.48
3.54
2.74
2.03
1.30
0.49
-0.46
-1.49
-2.54
-3.47
-4.10
-4.17
-3.45
-1.95
0.05
2.00
3.31
3.61
2.88
1.53
0.07
-1.08
-1.80
-2.19
-2.49
-2.85
-3.22
-3.51
-3.61
-3.52
-3.29
-3.08
-2.98
-2.99
-3.09
-3.26
-3.47
-3.75
-4.06
-4.34
-4.46
-4.31
-3.87
-3.28
-2.75
-2.49
-2.56
-2.84
-3.06
-3.01
-2.58
-1.91
-1.22
-0.75
-0.63
-0.81
-1.19
-1.63
-2.07
-2.45
-2.78
-3.07
-3.30
-3.50
-3.72
-4.06
-4.60
-5.39
-6.33
-7.14
-7.42
-6.81
-5.23
-2.96
-0.55
1.37
2.38
2.46
1.93
1.26
0.81
0.71
0.85
1.01
1.04
0.96
0.83
0.72
0.59
0.35
-0.12
-0.84
-1.68
-2.51
-3.17
-3.66
-4.05
-4.49
-5.07
-5.81
-6.65
-7.50
-8.33
-9.17
-10.07
-11.11
-12.25
-13.48
-14.77
-16.07
-17.42
-18.85
-20.45
-22.31
-24.49
-27.02
-29.81
-32.65
-35.33
-37.68
-39.73
-41.66
-43.87
-46.81
-50.79
-55.89
-61.81
-67.79
-72.78
-75.65
-75.45
-71.59
-63.90
-52.65
-38.51
-22.57
-6.06
9.75
24.01
36.39
46.98
55.91
63.03
67.75
69.42
67.75
63.19
56.79
49.71
42.64
35.68
28.53
21.09
13.79
7.47
2.83
-0.03
-1.74
-3.25
-5.20
-7.55
-9.63
-10.72
-10.51
-9.37
-8.05
-7.17
-6.89
-6.86
-6.59
-5.80
-4.64
-3.50
-2.68
-2.20
-1.81
-1.26
-0.54
0.08
0.24
-0.33
-1.61
-3.48
-5.81
-8.63
-12.02
-15.98
-20.32
-24.66
-28.50
-31.36
-32.91
-32.94
-31.42
-28.52
-24.56
-20.04
-15.46
-11.28
-7.65
-4.55
-1.91
0.21
1.48
1.48
-0.08
-3.03
-6.75
-10.28
-12.65
-13.21
-11.81
-8.81
-4.80
-0.54
3.17
5.57
5.86
3.48
-1.75
-9.29
-17.87
-25.65
-30.73
-31.60
-27.68
-19.26
-7.47
6.20
20.22
33.28
44.43
53.05
58.82
61.66
61.68
59.14
54.48
48.30
41.39
34.63
28.84
24.46
21.31
18.47
14.54
8.25
-0.92
-12.33
-24.17
-33.96
-39.47
-39.34
-33.50
-23.10
-10.02
3.63
16.01
25.79
32.26
35.28
35.23
32.86
29.11
24.97
21.32
18.77
17.50
17.27
17.35
16.85
15.06
11.83
7.77
4.03
1.91
2.28
5.36
10.66
17.34
24.57
31.68
38.20
43.75
48.02
50.81
52.21
52.57
52.40
52.15
52.04
52.02
51.86
51.42
50.76
50.16
49.97
50.33
51.06
51.64
51.43
50.00
47.32
43.84
40.23
37.14
34.97
33.90
33.91
34.85
36.43
38.08
39.08
38.70
36.68
33.60
30.95
30.66
34.20
41.79
52.06
62.52
70.58
74.76
75.10
72.83
69.47
65.88
61.97
57.12
51.02
44.21
38.07
34.11
33.03
34.40
36.78
38.47
38.27
35.90
31.85
26.96
21.85
16.59
10.57
2.85
-7.57
-21.26
-38.14
-57.40
-77.65
-97.20
-114.35
-127.59
-135.78
-138.31
-135.29
-127.67
-117.26
-106.34
-97.17
-91.33
-89.33
-90.62
-93.93
-97.95
-101.69
-104.70
-106.93
-108.36
-108.84
-108.06
-105.72
-101.82
-96.64
-90.72
-84.58
-78.47
-72.40
-66.17
-59.58
-52.59
-45.33
-38.01
-30.89
-24.11
-17.79
-11.98
-6.71
-1.95
2.33
6.25
9.92
13.45
16.90
20.24
23.33
25.96
27.91
29.01
29.27
28.84
28.07
27.29
26.71
26.35
26.05
25.70
25.22
24.68
24.14
23.53
22.65
21.28
19.32
16.99
14.71
12.90
11.71
10.94
10.12
8.77
6.68
3.90
0.67
-2.84
-6.62
-10.82
-15.53
-20.59
-25.47
-29.43
-31.68
-31.71
-29.51
-25.53
-20.54
-15.35
-10.56
-6.43
-2.88
0.36
3.59
6.99
10.55
14.08
17.32
20.05
22.18
23.84
25.27
26.79
28.58
30.71
33.01
35.28
37.28
38.82
39.72
39.76
38.73
36.54
33.33
29.61
26.11
23.59
22.42
22.44
22.86
22.63
20.86
17.20
12.01
6.14
0.64
-3.74
-6.78
-8.79
-10.46
-12.62
-16.01
-21.17
-28.18
-36.59
-45.22
-52.32
-56.09
-55.24
-49.64
-40.43
-29.69
-19.72
-12.18
-7.66
-5.73
-5.34
-5.41
-5.21
-4.50
-3.34
-1.90
-0.29
1.48
3.48
5.79
8.39
11.17
13.92
16.47
18.71
20.74
22.74
24.80
26.81
28.41
29.14
28.63
26.89
24.34
21.62
19.28
17.52
16.11
14.54
12.33
9.28
5.61
1.75
-1.87
-5.06
-8.04
-11.29
-15.37
-20.71
-27.38
-35.04
-42.96
-50.16
-55.58
-58.28
-57.72
-53.82
-47.14
-38.66
-29.64
-21.16
-13.88
-7.88
-2.75
2.13
7.21
12.57
17.94
22.85
26.93
30.14
32.72
35.06
37.43
39.84
42.07
43.86
45.04
45.66
45.90
45.96
45.86
45.48
44.62
43.12
41.04
38.60
36.11
33.81
31.81
30.05
28.32
26.47
24.40
22.13
19.75
17.31
14.80
12.08
9.00
5.42
1.33
-3.17
-7.90
-12.63
-17.23
-21.72
-26.29
-31.24
-36.92
-43.53
-50.91
-58.49
-65.21
-69.77
-70.98
-68.16
-61.52
-52.12
-41.62
-31.62
-23.20
-16.59
-11.30
-6.52
-1.61
3.66
9.13
14.43
19.29
23.68
27.74
31.67
35.49
39.05
42.09
44.41
46.03
47.21
48.28
49.52
50.95
52.29
53.14
53.16
52.26
50.64
48.69
46.80
45.19
43.87
42.67
41.32
39.62
37.50
35.01
32.36
29.78
27.43
25.33
23.27
20.84
17.66
13.53
8.56
3.16
-2.12
-6.86
-10.93
-14.58
-18.29
-22.64
-28.02
-34.57
-42.00
-49.66
-56.53
-61.51
-63.64
-62.40
-57.94
-50.95
-42.55
-33.86
-25.83
-18.95
-13.31
-8.70
-4.74
-1.08
2.57
6.29
9.97
13.38
16.30
18.65
20.59
22.35
24.19
26.23
28.38
30.45
32.19
33.52
34.43
35.00
35.32
35.38
35.11
34.44
33.36
31.97
30.40
28.84
27.34
25.88
24.36
22.64
20.64
18.36
15.85
13.16
10.29
7.22
3.91
0.39
-3.19
-6.68
-9.92
-12.91
-15.86
-19.10
-23.01
-27.79
-33.27
-38.85
-43.64
-46.70
-47.42
-45.65
-41.79
-36.52
-30.58
-24.57
-18.87
-13.68
-9.13
-5.30
-2.21
0.21
2.15
3.82
5.40
7.01
8.68
10.39
12.14
13.93
15.75
17.56
19.32
20.94
22.30
23.31
23.82
23.72
22.96
21.58
19.79
17.82
15.89
14.12
12.48
10.81
8.92
6.72
4.19
1.41
-1.51
-4.46
-7.47
-10.64
-14.17
-18.26
-23.02
-28.28
-33.58
-38.15
-41.15
-41.88
-40.09
-36.04
-30.35
-23.86
-17.28
-11.14
-5.72
-1.15
2.49
5.15
6.92
8.00
8.77
9.62
10.89
12.68
14.84
17.05
18.95
20.32
21.22
21.82
22.43
23.19
24.07
24.79
25.00
24.47
23.16
21.24
19.03
16.85
14.90
13.22
11.73
10.25
8.57
6.49
3.90
0.80
-2.67
-6.22
-9.56
-12.51
-15.11
-17.69
-20.70
-24.60
-29.61
-35.59
-41.98
-47.87
-52.27
-54.34
-53.67
-50.39
-45.13
-38.76
-32.17
-26.01
-20.57
-15.83
-11.55
-7.43
-3.28
0.96
5.14
9.06
12.51
15.43
17.94
20.28
22.65
25.10
27.51
29.63
31.27
32.38
33.12
33.66
34.09
34.26
33.92
32.79
30.83
28.30
25.68
23.47
21.91
20.98
20.32
19.53
18.33
16.68
14.79
12.96
11.38
10.02
8.66
7.02
4.88
2.20
-0.89
-4.11
-7.22
-10.07
-12.69
-15.21
-17.87
-20.92
-24.53
-28.85
-33.88
-39.43
-45.02
-49.87
-53.14
-54.06
-52.30
-48.11
-42.28
-35.84
-29.67
-24.27
-19.62
-15.39
-11.19
-6.80
-2.27
2.19
6.34
10.00
13.11
15.72
17.93
19.84
21.57
23.21
24.76
26.20
27.44
28.42
29.12
29.59
29.84
29.87
29.59
28.96
27.97
26.81
25.68
24.77
24.04
23.30
22.21
20.58
18.48
16.20
14.09
12.40
11.07
9.81
8.33
6.44
4.17
1.66
-0.93
-3.58
-6.33
-9.25
-12.38
-15.74
-19.36
-23.37
-27.84
-32.81
-38.03
-42.97
-46.97
-49.31
-49.49
-47.35
-43.14
-37.45
-31.13
-24.99
-19.64
-15.33
-11.94
-9.08
-6.34
-3.45
-0.41
2.60
5.34
7.65
9.54
11.16
12.73
14.42
16.27
18.27
20.28
22.18
23.85
25.20
26.20
26.81
26.97
26.66
25.82
24.49
22.81
21.01
19.33
17.92
16.81
15.82
14.74
13.42
11.84
10.11
8.36
6.63
4.85
2.92
0.81
-1.44
-3.69
-5.88
-8.09
-10.56
-13.61
-17.47
-22.15
-27.38
-32.58
-37.03
-39.99
-40.91
-39.59
-36.24
-31.46
-26.07
-20.80
-16.12
-12.16
-8.82
-5.86
-3.18
-0.73
1.44
3.32
5.03
6.76
8.69
10.91
13.34
15.81
18.09
20.06
21.64
22.88
23.80
24.41
24.68
24.59
24.10
23.24
22.08
20.69
19.13
17.48
15.82
14.25
12.83
11.55
10.23
8.67
6.67
4.19
1.35
-1.64
-4.55
-7.30
-9.94
-12.60
-15.41
-18.47
-21.84
-25.58
-29.73
-34.20
-38.66
-42.56
-45.14
-45.75
-44.01
-40.06
-34.50
-28.26
-22.18
-16.85
-12.42
-8.67
-5.24
-1.86
1.54
4.85
7.84
10.35
12.38
14.02
15.44
16.79
18.18
19.67
21.26
22.96
24.69
26.34
27.72
28.65
28.97
28.61
27.61
26.15
24.44
22.70
21.05
19.53
18.04
16.46
14.71
12.80
10.84
8.96
7.30
5.89
4.69
3.55
2.33
0.94
-0.65
-2.39
-4.22
-6.15
-8.20
-10.46
-13.09
-16.18
-19.81
-24.00
-28.62
-33.41
-37.84
-41.26
-42.99
-42.60
-40.05
-35.81
-30.67
-25.49
-20.84
-16.93
-13.63
-10.58
-7.49
-4.21
-0.84
2.46
5.49
8.12
10.34
12.23
13.88
15.40
16.84
18.24
19.56
20.76
21.80
22.65
23.31
23.78
24.05
24.02
23.62
22.76
21.47
19.84
18.03
16.17
14.34
12.54
10.70
8.80
6.83
4.80
2.75
0.65
-1.54
-3.88
-6.37
-8.99
-11.71
-14.50
-17.40
-20.51
-23.99
-27.95
-32.40
-37.27
-42.39
-47.58
-52.71
-57.67
-62.27
-66.14
-68.84
-69.87
-68.95
-66.13
-61.72
-56.10
-49.58
-42.28
-34.37
-26.26
-18.50
-11.45
-4.85
2.42
11.90
24.81
41.12
59.35
76.99
91.49
101.25
106.09
106.96
105.24
102.10
98.19
93.75
88.96
84.09
79.42
75.14
71.11
66.92
62.05
56.10
49.02
41.15
33.17
25.77
19.48
14.34
10.00
5.85
1.37
-3.67
-9.14
-14.68
-19.95
-24.72
-28.97
-32.81
-36.35
-39.64
-42.65
-45.27
-47.34
-48.64
-49.00
-48.36
-46.78
-44.50
-41.82
-39.04
-36.36
-33.87
-31.56
-29.41
-27.34
-25.32
-23.29
-21.21
-19.07
-16.89
-14.75
-12.66
-10.63
-8.60
-6.47
-4.14
-1.60
1.06
3.64
5.87
7.45
8.21
8.15
7.53
6.79
6.34
6.37
6.70
6.82
6.13
4.26
1.38
-1.84
-4.48
-5.77
-5.43
-3.75
-1.53
0.22
0.42
-1.84
-7.04
-14.91
-24.06
-32.11
-36.25
-34.32
-25.81
-12.31
2.99
16.46
25.37
28.76
27.44
23.28
18.28
13.82
10.51
8.45
7.66
8.40
11.17
16.37
23.87
32.75
41.45
48.31
52.24
53.27
52.47
51.44
51.51
53.04
55.37
57.22
57.44
55.60
52.18
48.15
44.46
41.50
39.01
36.27
32.61
27.67
21.64
14.95
8.03
1.08
-5.90
-12.99
-20.01
-26.51
-31.86
-35.50
-37.19
-37.19
-36.09
-34.70
-33.74
-33.69
-34.60
-36.26
-38.23
-40.13
-41.73
-43.00
-44.08
-45.07
-45.96
-46.61
-46.89
-46.81
-46.60
-46.61
-47.15
-48.26
-49.61
-50.66
-50.85
-49.86
-47.76
-44.91
-41.76
-38.60
-35.43
-31.95
-27.84
-22.95
-17.42
-11.64
-6.10
-1.12
3.27
7.28
11.17
15.10
18.94
22.34
24.87
26.20
26.21
25.02
22.92
20.26
17.34
14.33
11.29
8.19
4.98
1.63
-1.92
-5.74
-9.90
-14.38
-19.04
-23.56
-27.55
-30.64
-32.70
-33.81
-34.23
-34.27
-34.13
-33.83
-33.27
-32.30
-30.77
-28.68
-26.09
-23.16
-20.08
-17.00
-14.05
-11.26
-8.63
-6.15
-3.85
-1.70
0.33
2.30
4.28
6.21
7.96
9.29
10.08
10.30
10.12
9.77
9.42
9.11
8.74
8.16
7.32
6.28
5.20
4.23
3.44
2.74
2.05
1.27
0.43
-0.37
-1.04
-1.56
-2.04
-2.69
-3.79
-5.55
-8.08
-11.40
-15.40
-19.81
-24.21
-28.05
-30.78
-31.94
-31.36
-29.22
-25.96
-22.16
-18.34
-14.81
-11.64
-8.68
-5.78
-2.81
0.15
2.94
5.37
7.29
8.75
9.94
11.12
12.49
14.13
15.92
17.67
19.17
20.28
20.95
21.19
21.04
20.54
19.73
18.67
17.39
15.93
14.32
12.62
10.81
8.94
7.00
5.03
3.05
1.09
-0.85
-2.82
-4.93
-7.36
-10.32
-13.96
-18.28
-23.01
-27.65
-31.49
-33.81
-34.10
-32.23
-28.49
-23.52
-18.13
-13.03
-8.66
-5.11
-2.17
0.40
2.82
5.13
7.20
8.88
10.10
10.98
11.70
12.52
13.55
14.85
16.29
17.73
19.02
19.99
20.50
20.46
19.82
18.58
16.85
14.82
12.71
10.70
8.93
7.43
6.08
4.70
3.05
1.01
-1.45
-4.15
-6.79
-9.10
-10.98
-12.59
-14.32
-16.64
-19.94
-24.30
-29.41
-34.63
-39.10
-41.96
-42.66
-41.01
-37.27
-32.06
-26.18
-20.33
-15.03
-10.47
-6.57
-3.06
0.34
3.78
7.28
10.71
13.90
16.75
19.22
21.36
23.21
24.79
26.06
27.02
27.69
28.19
28.66
29.22
29.84
30.37
30.58
30.28
29.41
28.05
26.44
24.77
23.15
21.58
19.95
18.19
16.29
14.36
12.51
10.76
8.97
6.86
4.24
1.04
-2.55
-6.19
-9.54
-12.48
-15.09
-17.74
-20.86
-24.82
-29.77
-35.56
-41.74
-47.64
-52.43
-55.38
-55.90
-53.77
-49.22
-42.85
-35.57
-28.29
-21.73
-16.15
-11.45
-7.23
-3.15
0.98
5.08
8.91
12.24
15.03
17.42
19.66
22.00
24.55
27.27
30.01
32.58
34.84
36.66
37.98
38.76
39.03
38.78
38.06
36.93
35.51
33.98
32.53
31.29
30.25
29.25
27.99
26.25
23.93
21.19
18.37
15.81
13.72
12.04
10.50
8.71
6.39
3.45
-0.00
-3.71
-7.40
-10.88
-14.10
-17.20
-20.43
-24.07
-28.42
-33.59
-39.44
-45.48
-50.87
-54.63
-55.84
-54.05
-49.38
-42.54
-34.62
-26.74
-19.70
-13.81
-8.97
-4.86
-1.18
2.18
5.22
7.90
10.33
12.74
15.37
18.38
21.68
24.99
27.94
30.29
31.99
33.21
34.12
34.76
35.05
34.83
34.01
32.73
31.22
29.75
28.43
27.22
25.95
24.51
22.86
21.10
19.33
17.59
15.85
14.01
12.00
9.84
7.63
5.45
3.35
1.25
-1.01
-3.61
-6.67
-10.31
-14.54
-19.39
-24.82
-30.67
-36.49
-41.59
-45.07
-46.17
-44.52
-40.32
-34.32
-27.54
-20.90
-15.01
-10.07
-5.98
-2.53
0.40
2.81
4.66
5.95
6.83
7.56
8.45
9.72
11.41
13.37
15.34
17.09
18.48
19.51
20.25
20.75
21.02
20.99
20.65
20.00
19.06
17.87
16.46
14.87
13.21
11.60
10.18
9.01
8.03
7.06
5.88
4.30
2.23
-0.29
-3.18
-6.28
-9.45
-12.56
-15.57
-18.51
-21.58
-25.04
-29.16
-34.04
-39.56
-45.28
-50.48
-54.27
-55.84
-54.73
-50.99
-45.22
-38.36
-31.41
-25.08
-19.63
-14.93
-10.66
-6.55
-2.57
1.19
4.59
7.66
10.58
13.60
16.87
20.32
23.64
26.49
28.65
30.12
31.15
32.06
33.08
34.18
35.10
35.50
35.15
34.05
32.49
30.88
29.54
28.54
27.69
26.66
25.20
23.28
21.12
18.96
17.01
15.19
13.30
11.12
8.54
5.62
2.52
-0.61
-3.67
-6.64
-9.52
-12.31
-15.05
-17.89
-21.08
-24.90
-29.50
-34.68
-39.86
-44.17
-46.63
-46.53
-43.63
-38.28
-31.32
-23.81
-16.76
-10.82
-6.20
-2.71
0.07
2.56
5.06
7.65
10.22
12.62
14.75
16.62
18.28
19.83
21.31
22.66
23.80
24.67
25.28
25.71
26.04
26.33
26.54
26.57
26.34
25.80
24.99
24.01
22.94
21.85
20.74
19.59
18.37
17.07
15.66
14.11
12.35
10.28
7.81
4.91
1.66
-1.77
-5.13
-8.22
-11.00
-13.61
-16.38
-19.66
-23.69
-28.42
-33.45
-38.16
-41.79
-43.70
-43.46
-41.04
-36.75
-31.15
-24.96
-18.89
-13.50
-9.10
-5.79
-3.43
-1.70
-0.28
1.18
2.86
4.82
6.94
9.09
11.12
13.02
14.86
16.71
18.62
20.46
22.06
23.19
23.79
23.91
23.71
23.34
22.88
22.25
21.37
20.19
18.80
17.34
15.96
14.62
13.14
11.23
8.71
5.59
2.15
-1.24
-4.23
-6.64
-8.57
-10.27
-12.06
-14.26
-17.11
-20.71
-25.05
-29.96
-35.04
-39.73
-43.32
-45.12
-44.66
-41.80
-36.90
-30.66
-23.96
-17.64
-12.20
-7.76
-4.11
-0.87
2.28
5.48
8.68
11.68
14.32
16.53
18.37
19.97
21.42
22.72
23.79
24.54
24.91
24.94
24.74
24.48
24.26
24.08
23.89
23.57
23.03
22.25
21.24
20.03
18.63
16.98
15.08
13.00
10.85
8.82
7.00
5.39
3.83
2.11
0.08
-2.30
-4.94
-7.65
-10.29
-12.76
-15.05
-17.23
-19.48
-22.08
-25.34
-29.47
-34.38
-39.58
-44.18
-47.16
-47.72
-45.58
-41.11
-35.18
-28.80
-22.78
-17.52
-13.01
-9.04
-5.35
-1.77
1.72
5.01
7.99
10.57
12.76
14.63
16.29
17.83
19.30
20.67
21.91
23.03
24.07
25.15
26.27
27.35
28.15
28.39
27.90
26.72
25.11
23.40
21.89
20.70
19.72
18.76
17.61
16.21
14.61
12.99
11.47
10.12
8.87
7.57
6.09
4.32
2.26
-0.01
-2.41
-4.90
-7.50
-10.25
-13.19
-16.33
-19.68
-23.29
-27.24
-31.54
-36.02
-40.17
-43.26
-44.49
-43.33
-39.80
-34.45
-28.24
-22.13
-16.79
-12.43
-8.87
-5.78
-2.90
-0.16
2.33
4.44
6.15
7.61
9.07
10.79
12.86
15.17
17.51
19.60
21.31
22.62
23.61
24.31
24.72
24.74
24.28
23.34
22.03
20.57
19.12
17.81
16.59
15.37
14.06
12.64
11.19
9.80
8.50
7.20
5.72
3.91
1.76
-0.57
-2.80
-4.74
-6.35
-7.81
-9.41
-11.42
-14.06
-17.33
-21.22
-25.61
-30.29
-34.89
-38.80
-41.31
-41.85
-40.16
-36.42
-31.31
-25.64
-20.18
-15.37
-11.31
-7.82
-4.66
-1.66
1.21
3.87
6.22
8.26
10.02
11.60
13.07
14.46
15.81
17.15
18.51
19.92
21.39
22.81
24.06
24.95
25.31
25.06
24.19
22.86
21.33
19.90
18.78
18.04
17.52
16.93
16.00
14.62
12.92
11.15
9.53
8.04
6.46
4.43
1.73
-1.60
-5.25
-8.79
-11.88
-14.48
-16.77
-19.09
-21.76
-24.97
-28.78
-33.06
-37.53
-41.75
-45.09
-46.87
-46.54
-43.93
-39.33
-33.46
-27.27
-21.57
-16.82
-13.05
-9.94
-7.09
-4.18
-1.12
1.99
4.97
7.70
10.15
12.42
14.62
16.84
19.09
21.28
23.26
24.92
26.18
27.06
27.63
27.94
27.97
27.61
26.74
25.32
23.43
21.31
19.25
17.47
16.02
14.82
13.67
12.43
11.07
9.67
8.41
7.39
6.59
5.89
5.04
3.79
1.98
-0.37
-3.09
-5.89
-8.55
-10.98
-13.31
-15.72
-18.44
-21.61
-25.30
-29.42
-33.76
-37.93
-41.31
-43.24
-43.16
-40.90
-36.73
-31.34
-25.58
-20.16
-15.46
-11.50
-8.09
-5.01
-2.14
0.52
2.92
5.02
6.89
8.64
10.38
12.17
13.96
15.61
16.98
18.00
18.74
19.32
19.92
20.58
21.27
21.84
22.14
22.10
21.71
21.02
20.07
18.89
17.52
16.02
14.54
13.22
12.18
11.43
10.80
10.00
8.76
6.95
4.61
1.96
-0.75
-3.33
-5.78
-8.20
-10.77
-13.64
-16.88
-20.50
-24.42
-28.48
-32.32
-35.42
-37.20
-37.17
-35.15
-31.41
-26.54
-21.35
-16.53
-12.48
-9.29
-6.77
-4.70
-2.92
-1.39
-0.17
0.75
1.46
2.22
3.27
4.79
6.76
8.95
10.97
12.47
13.28
13.50
13.38
13.26
13.29
13.40
13.37
12.93
12.01
10.71
9.37
8.29
7.63
7.38
7.37
7.42
7.38
7.19
6.75
5.94
4.65
2.78
0.39
-2.35
-5.21
-7.99
-10.67
-13.39
-16.43
-20.05
-24.32
-29.02
-33.60
-37.25
-39.22
-39.01
-36.60
-32.47
-27.39
-22.14
-17.25
-12.90
-8.97
-5.26
-1.61
1.92
5.21
8.09
10.50
12.45
14.09
15.53
16.83
18.00
19.01
19.84
20.56
21.24
21.97
22.72
23.41
23.85
23.94
23.64
23.08
22.41
21.77
21.18
20.53
19.64
18.41
16.82
14.99
13.09
11.26
9.55
7.89
6.19
4.37
2.38
0.24
-2.01
-4.34
-6.72
-9.11
-11.51
-13.95
-16.54
-19.49
-23.00
-27.17
-31.85
-36.57
-40.65
-43.34
-44.09
-42.70
-39.42
-34.79
-29.46
-23.99
-18.75
-13.88
-9.42
-5.34
-1.64
1.68
4.66
7.37
9.87
12.20
14.35
16.25
17.86
19.22
20.46
21.73
23.13
24.65
26.18
27.55
28.57
29.10
29.05
28.42
27.26
25.72
24.01
22.35
20.89
19.69
18.66
17.65
16.51
15.15
13.57
11.87
10.19
8.61
7.13
5.64
3.96
1.92
-0.54
-3.33
-6.25
-9.09
-11.77
-14.34
-17.01
-20.00
-23.45
-27.32
-31.36
-35.19
-38.32
-40.29
-40.74
-39.52
-36.75
-32.79
-28.21
-23.58
-19.42
-15.99
-13.27
-11.02
-8.92
-6.71
-4.27
-1.65
1.04
3.68
6.26
8.83
11.40
13.96
16.35
18.44
20.12
21.40
22.39
23.23
23.98
24.60
24.93
24.75
23.92
22.43
20.44
18.22
16.06
14.14
12.46
10.85
9.10
7.04
4.68
2.12
-0.43
-2.78
-4.87
-6.83
-8.86
-11.21
-14.03
-17.36
-21.09
-25.01
-28.78
-32.01
-34.23
-35.00
-34.00
-31.19
-26.80
-21.39
-15.66
-10.22
-5.54
-1.77
1.16
3.44
5.32
6.94
8.42
9.78
11.03
12.21
13.40
14.67
16.04
17.40
18.57
19.34
19.64
19.58
19.41
19.38
19.55
19.70
19.45
18.47
16.67
14.32
11.91
9.93
8.64
7.94
7.44
6.70
5.45
3.66
1.47
-0.88
-3.25
-5.58
-7.95
-10.42
-13.03
-15.80
-18.77
-22.03
-25.70
-29.83
-34.24
-38.50
-41.96
-43.93
-43.95
-41.90
-38.11
-33.21
-27.94
-22.88
-18.34
-14.35
-10.69
-7.15
-3.53
0.15
3.80
7.26
10.39
13.16
15.59
17.73
19.63
21.30
22.80
24.20
25.54
26.86
28.11
29.13
29.74
29.81
29.29
28.26
26.91
25.45
24.05
22.79
21.66
20.60
19.48
18.25
16.92
15.54
14.21
12.91
11.57
10.02
8.08
5.70
2.98
0.13
-2.63
-5.17
-7.51
-9.85
-12.43
-15.48
-19.13
-23.38
-28.11
-33.00
-37.60
-41.25
-43.29
-43.18
-40.77
-36.44
-30.96
-25.28
-20.16
-15.90
-12.33
-9.04
-5.63
-2.02
1.58
4.86
7.56
9.68
11.36
12.82
14.21
15.48
16.59
17.53
18.44
19.54
20.97
22.71
24.51
26.04
26.98
27.19
26.75
25.88
24.82
23.73
22.62
21.41
19.97
18.28
16.40
14.46
12.63
11.01
9.58
8.22
6.82
5.26
3.51
1.60
-0.42
-2.50
-4.61
-6.73
-8.89
-11.17
-13.70
-16.67
-20.21
-24.34
-28.81
-33.08
-36.45
-38.19
-37.87
-35.47
-31.45
-26.54
-21.54
-17.00
-13.18
-10.04
-7.42
-5.17
-3.22
-1.53
-0.04
1.40
2.92
4.63
6.54
8.56
10.59
12.53
14.33
16.00
17.53
18.92
20.18
21.28
22.17
22.73
22.80
22.25
21.01
19.21
17.10
15.01
13.22
11.86
10.83
9.93
8.92
7.62
5.98
3.99
1.74
-0.68
-3.17
-5.59
-7.88
-10.07
-12.32
-14.93
-18.23
-22.35
-27.08
-31.91
-36.03
-38.69
-39.41
-38.09
-35.01
-30.69
-25.70
-20.55
-15.62
-11.15
-7.20
-3.76
-0.69
2.15
4.87
7.47
9.86
11.90
13.53
14.81
15.93
17.10
18.49
20.13
21.87
23.48
24.72
25.47
25.72
25.55
25.10
24.44
23.60
22.53
21.21
19.67
17.97
16.21
14.42
12.57
10.61
8.55
6.43
4.38
2.50
0.76
-0.92
-2.72
-4.74
-6.97
-9.28
-11.50
-13.55
-15.55
-17.81
-20.66
-24.33
-28.77
-33.59
-38.11
-41.56
-43.31
-43.02
-40.76
-36.92
-32.09
-26.83
-21.66
-16.89
-12.65
-8.93
-5.64
-2.61
0.30
3.23
6.18
9.11
11.87
14.34
16.44
18.14
19.49
20.57
21.48
22.34
23.21
24.09
24.93
25.58
25.88
25.70
25.01
23.95
22.69
21.48
20.43
19.53
18.67
17.69
16.51
15.13
13.68
12.31
11.13
10.18
9.29
8.27
6.86
4.92
2.44
-0.41
-3.39
-6.20
-8.70
-10.95
-13.18
-15.72
-18.87
-22.76
-27.27
-32.07
-36.57
-40.12
-42.12
-42.17
-40.21
-36.55
-31.77
-26.57
-21.56
-17.12
-13.36
-10.17
-7.34
-4.70
-2.14
0.34
2.68
4.88
6.96
8.99
10.99
12.97
14.88
16.65
18.26
19.66
20.85
21.77
22.40
22.70
22.67
22.35
21.81
21.04
20.01
18.71
17.17
15.54
13.99
12.67
11.64
10.79
9.97
9.03
7.87
6.51
4.97
3.28
1.44
-0.53
-2.56
-4.56
-6.50
-8.37
-10.34
-12.67
-15.58
-19.21
-23.44
-27.88
-31.93
-34.95
-36.40
-36.06
-34.00
-30.61
-26.42
-21.98
-17.70
-13.80
-10.35
-7.34
-4.70
-2.45
-0.55
1.03
2.44
3.88
5.53
7.52
9.79
12.15
14.33
16.11
17.40
18.26
18.83
19.19
19.31
19.04
18.21
16.74
14.79
12.62
10.58
8.91
7.65
6.62
5.52
4.08
2.19
-0.10
-2.58
-5.02
-7.29
-9.38
-11.39
-13.49
-15.84
-18.53
-21.58
-24.86
-28.12
-30.97
-32.90
-33.47
-32.36
-29.61
-25.58
-20.91
-16.29
-12.27
-9.03
-6.40
-4.03
-1.55
1.17
4.04
6.85
9.42
11.67
13.71
15.68
17.72
19.92
22.29
24.82
27.47
30.16
32.74
34.95
36.54
37.21
36.81
35.29
32.77
29.53
25.92
22.36
19.12
16.36
14.05
12.00
10.01
7.88
5.55
3.01
0.34
-2.39
-5.05
-7.52
-9.63
-11.29
-12.56
-13.67
-15.03
-17.07
-20.10
-24.13
-28.78
-33.39
-37.12
-39.28
-39.51
-37.85
-34.73
-30.73
-26.47
-22.43
-18.88
-15.86
-13.21
-10.65
-7.88
-4.71
-1.19
2.42
5.74
8.42
10.36
11.67
12.66
13.63
14.70
15.84
16.95
17.95
18.89
19.80
20.61
21.15
21.15
20.47
19.16
17.53
15.96
14.79
14.08
13.67
13.18
12.29
10.81
8.77
6.40
3.96
1.66
-0.40
-2.31
-4.19
-6.15
-8.21
-10.33
-12.42
-14.46
-16.55
-18.88
-21.71
-25.27
-29.62
-34.58
-39.76
-44.58
-48.37
-50.54
-50.70
-48.78
-45.02
-39.99
-34.41
-28.93
-23.99
-19.65
-15.74
-11.90
-7.89
-3.67
0.52
4.34
7.48
9.91
11.84
13.63
15.63
18.00
20.69
23.46
26.01
28.13
29.70
30.72
31.23
31.28
30.87
30.01
28.73
27.11
25.28
23.39
21.54
19.77
18.03
16.27
14.38
12.29
10.01
7.60
5.23
2.99
0.97
-0.92
-2.80
-4.85
-7.19
-9.88
-12.95
-16.40
-20.25
-24.56
-29.29
-34.19
-38.74
-42.20
-43.79
-42.98
-39.71
-34.49
-28.26
-22.06
-16.63
-12.28
-8.81
-5.82
-3.01
-0.30
2.15
4.16
5.72
7.03
8.40
10.09
12.17
14.55
17.07
19.61
22.08
24.37
26.31
27.66
28.25
28.01
27.05
25.53
23.64
21.46
19.06
16.51
13.96
11.56
9.41
7.47
5.57
3.50
1.11
-1.58
-4.46
-7.34
-10.14
-12.88
-15.72
-18.80
-22.21
-25.86
-29.53
-32.80
-35.20
-36.19
-35.29
-32.17
